Time,Date,EMG Value (V),Filtered Value (V),,
10:34:25,30-Sep-21,0.0635,0.063,0.00403225,0.003969
10:34:25,30-Sep-21,0.0635,0.063,0.00403225,0.003969
10:34:25,30-Sep-21,0.0635,0.063,0.00403225,0.003969
10:34:25,30-Sep-21,0.0635,0.063,0.00403225,0.003969
10:34:25,30-Sep-21,0.0635,0.063,0.00403225,0.003969
10:34:25,30-Sep-21,0.0635,0.063,0.00403225,0.003969
10:34:25,30-Sep-21,0.0635,0.063,0.00403225,0.003969
10:34:25,30-Sep-21,0.0635,0.062,0.00403225,0.003844
10:34:25,30-Sep-21,0.0635,0.062,0.00403225,0.003844
10:34:25,30-Sep-21,0.0635,0.062,0.00403225,0.003844
10:34:25,30-Sep-21,0.0635,0.062,0.00403225,0.003844
10:34:25,30-Sep-21,0.0635,0.062,0.00403225,0.003844
10:34:25,30-Sep-21,0.0635,0.062,0.00403225,0.003844
10:34:25,30-Sep-21,0.0635,0.062,0.00403225,0.003844
10:34:25,30-Sep-21,0.0635,0.062,0.00403225,0.003844
10:34:25,30-Sep-21,0.0635,0.063,0.00403225,0.003969
10:34:26,30-Sep-21,0.0635,0.063,0.00403225,0.003969
10:34:26,30-Sep-21,0.0635,0.063,0.00403225,0.003969
10:34:26,30-Sep-21,0.0635,0.063,0.00403225,0.003969
10:34:26,30-Sep-21,0.0635,0.063,0.00403225,0.003969
10:34:26,30-Sep-21,0.0635,0.063,0.00403225,0.003969
10:34:26,30-Sep-21,0.0585,0.063,0.00342225,0.003969
10:34:26,30-Sep-21,0.0585,0.064,0.00342225,0.004096
10:34:26,30-Sep-21,0.0585,0.064,0.00342225,0.004096
10:34:26,30-Sep-21,0.0585,0.064,0.00342225,0.004096
10:34:26,30-Sep-21,0.0585,0.064,0.00342225,0.004096
10:34:26,30-Sep-21,0.0585,0.065,0.00342225,0.004225
10:34:26,30-Sep-21,0.0585,0.065,0.00342225,0.004225
10:34:26,30-Sep-21,0.0635,0.065,0.00403225,0.004225
10:34:26,30-Sep-21,0.0635,0.066,0.00403225,0.004356
10:34:26,30-Sep-21,0.0685,0.066,0.00469225,0.004356
10:34:26,30-Sep-21,0.0685,0.067,0.00469225,0.004489
10:34:26,30-Sep-21,0.0685,0.067,0.00469225,0.004489
10:34:26,30-Sep-21,0.0685,0.067,0.00469225,0.004489
10:34:26,30-Sep-21,0.0685,0.068,0.00469225,0.004624
10:34:26,30-Sep-21,0.0685,0.068,0.00469225,0.004624
10:34:26,30-Sep-21,0.0685,0.069,0.00469225,0.004761
10:34:26,30-Sep-21,0.0685,0.069,0.00469225,0.004761
10:34:26,30-Sep-21,0.0685,0.07,0.00469225,0.0049
10:34:26,30-Sep-21,0.0735,0.07,0.00540225,0.0049
10:34:26,30-Sep-21,0.0735,0.07,0.00540225,0.0049
10:34:26,30-Sep-21,0.0735,0.071,0.00540225,0.005041
10:34:26,30-Sep-21,0.0735,0.071,0.00540225,0.005041
10:34:26,30-Sep-21,0.0735,0.072,0.00540225,0.005184
10:34:26,30-Sep-21,0.0735,0.072,0.00540225,0.005184
10:34:26,30-Sep-21,0.0735,0.072,0.00540225,0.005184
10:34:26,30-Sep-21,0.078,0.073,0.006084,0.005329
10:34:26,30-Sep-21,0.078,0.073,0.006084,0.005329
10:34:26,30-Sep-21,0.078,0.073,0.006084,0.005329
10:34:26,30-Sep-21,0.078,0.074,0.006084,0.005476
10:34:26,30-Sep-21,0.078,0.074,0.006084,0.005476
10:34:26,30-Sep-21,0.0735,0.074,0.00540225,0.005476
10:34:26,30-Sep-21,0.0735,0.075,0.00540225,0.005625
10:34:26,30-Sep-21,0.0735,0.075,0.00540225,0.005625
10:34:26,30-Sep-21,0.0735,0.075,0.00540225,0.005625
10:34:26,30-Sep-21,0.0735,0.075,0.00540225,0.005625
10:34:26,30-Sep-21,0.0735,0.076,0.00540225,0.005776
10:34:26,30-Sep-21,0.0735,0.076,0.00540225,0.005776
10:34:26,30-Sep-21,0.0735,0.076,0.00540225,0.005776
10:34:26,30-Sep-21,0.0735,0.076,0.00540225,0.005776
10:34:26,30-Sep-21,0.0735,0.076,0.00540225,0.005776
10:34:26,30-Sep-21,0.0735,0.076,0.00540225,0.005776
10:34:26,30-Sep-21,0.078,0.077,0.006084,0.005929
10:34:26,30-Sep-21,0.078,0.077,0.006084,0.005929
10:34:26,30-Sep-21,0.078,0.077,0.006084,0.005929
10:34:26,30-Sep-21,0.078,0.077,0.006084,0.005929
10:34:26,30-Sep-21,0.078,0.077,0.006084,0.005929
10:34:26,30-Sep-21,0.078,0.077,0.006084,0.005929
10:34:26,30-Sep-21,0.078,0.077,0.006084,0.005929
10:34:26,30-Sep-21,0.078,0.077,0.006084,0.005929
10:34:26,30-Sep-21,0.078,0.078,0.006084,0.006084
10:34:26,30-Sep-21,0.078,0.078,0.006084,0.006084
10:34:26,30-Sep-21,0.078,0.078,0.006084,0.006084
10:34:26,30-Sep-21,0.078,0.078,0.006084,0.006084
10:34:26,30-Sep-21,0.078,0.078,0.006084,0.006084
10:34:26,30-Sep-21,0.078,0.078,0.006084,0.006084
10:34:26,30-Sep-21,0.078,0.078,0.006084,0.006084
10:34:26,30-Sep-21,0.078,0.079,0.006084,0.006241
10:34:26,30-Sep-21,0.078,0.079,0.006084,0.006241
10:34:26,30-Sep-21,0.078,0.079,0.006084,0.006241
10:34:26,30-Sep-21,0.078,0.079,0.006084,0.006241
10:34:26,30-Sep-21,0.078,0.079,0.006084,0.006241
10:34:26,30-Sep-21,0.078,0.079,0.006084,0.006241
10:34:26,30-Sep-21,0.078,0.08,0.006084,0.0064
10:34:26,30-Sep-21,0.078,0.08,0.006084,0.0064
10:34:26,30-Sep-21,0.078,0.08,0.006084,0.0064
10:34:26,30-Sep-21,0.078,0.08,0.006084,0.0064
10:34:26,30-Sep-21,0.078,0.081,0.006084,0.006561
10:34:26,30-Sep-21,0.083,0.081,0.006889,0.006561
10:34:26,30-Sep-21,0.083,0.081,0.006889,0.006561
10:34:26,30-Sep-21,0.083,0.081,0.006889,0.006561
10:34:26,30-Sep-21,0.083,0.082,0.006889,0.006724
10:34:26,30-Sep-21,0.083,0.082,0.006889,0.006724
10:34:26,30-Sep-21,0.083,0.082,0.006889,0.006724
10:34:26,30-Sep-21,0.083,0.082,0.006889,0.006724
10:34:26,30-Sep-21,0.083,0.083,0.006889,0.006889
10:34:26,30-Sep-21,0.083,0.083,0.006889,0.006889
10:34:26,30-Sep-21,0.083,0.083,0.006889,0.006889
10:34:26,30-Sep-21,0.083,0.084,0.006889,0.007056
10:34:26,30-Sep-21,0.083,0.084,0.006889,0.007056
10:34:26,30-Sep-21,0.083,0.084,0.006889,0.007056
10:34:26,30-Sep-21,0.083,0.084,0.006889,0.007056
10:34:26,30-Sep-21,0.083,0.085,0.006889,0.007225
10:34:26,30-Sep-21,0.083,0.085,0.006889,0.007225
10:34:26,30-Sep-21,0.083,0.085,0.006889,0.007225
10:34:26,30-Sep-21,0.088,0.085,0.007744,0.007225
10:34:26,30-Sep-21,0.088,0.086,0.007744,0.007396
10:34:26,30-Sep-21,0.088,0.086,0.007744,0.007396
10:34:26,30-Sep-21,0.088,0.086,0.007744,0.007396
10:34:26,30-Sep-21,0.088,0.086,0.007744,0.007396
10:34:26,30-Sep-21,0.088,0.087,0.007744,0.007569
10:34:26,30-Sep-21,0.088,0.087,0.007744,0.007569
10:34:26,30-Sep-21,0.088,0.087,0.007744,0.007569
10:34:26,30-Sep-21,0.088,0.087,0.007744,0.007569
10:34:26,30-Sep-21,0.088,0.087,0.007744,0.007569
10:34:26,30-Sep-21,0.088,0.087,0.007744,0.007569
10:34:26,30-Sep-21,0.088,0.088,0.007744,0.007744
10:34:26,30-Sep-21,0.088,0.088,0.007744,0.007744
10:34:26,30-Sep-21,0.088,0.088,0.007744,0.007744
10:34:26,30-Sep-21,0.088,0.088,0.007744,0.007744
10:34:26,30-Sep-21,0.088,0.088,0.007744,0.007744
10:34:26,30-Sep-21,0.088,0.088,0.007744,0.007744
10:34:26,30-Sep-21,0.088,0.088,0.007744,0.007744
10:34:26,30-Sep-21,0.088,0.088,0.007744,0.007744
10:34:26,30-Sep-21,0.088,0.088,0.007744,0.007744
10:34:26,30-Sep-21,0.088,0.088,0.007744,0.007744
10:34:26,30-Sep-21,0.088,0.088,0.007744,0.007744
10:34:26,30-Sep-21,0.088,0.088,0.007744,0.007744
10:34:26,30-Sep-21,0.088,0.089,0.007744,0.007921
10:34:26,30-Sep-21,0.088,0.089,0.007744,0.007921
10:34:26,30-Sep-21,0.088,0.089,0.007744,0.007921
10:34:26,30-Sep-21,0.088,0.089,0.007744,0.007921
10:34:26,30-Sep-21,0.088,0.089,0.007744,0.007921
10:34:26,30-Sep-21,0.088,0.089,0.007744,0.007921
10:34:26,30-Sep-21,0.088,0.089,0.007744,0.007921
10:34:26,30-Sep-21,0.088,0.089,0.007744,0.007921
10:34:26,30-Sep-21,0.088,0.089,0.007744,0.007921
10:34:26,30-Sep-21,0.088,0.089,0.007744,0.007921
10:34:26,30-Sep-21,0.088,0.089,0.007744,0.007921
10:34:26,30-Sep-21,0.088,0.089,0.007744,0.007921
10:34:26,30-Sep-21,0.088,0.089,0.007744,0.007921
10:34:26,30-Sep-21,0.088,0.089,0.007744,0.007921
10:34:26,30-Sep-21,0.088,0.089,0.007744,0.007921
10:34:26,30-Sep-21,0.093,0.089,0.008649,0.007921
10:34:26,30-Sep-21,0.093,0.089,0.008649,0.007921
10:34:26,30-Sep-21,0.093,0.089,0.008649,0.007921
10:34:26,30-Sep-21,0.093,0.089,0.008649,0.007921
10:34:26,30-Sep-21,0.093,0.089,0.008649,0.007921
10:34:26,30-Sep-21,0.088,0.089,0.007744,0.007921
10:34:26,30-Sep-21,0.088,0.089,0.007744,0.007921
10:34:26,30-Sep-21,0.088,0.089,0.007744,0.007921
10:34:26,30-Sep-21,0.088,0.089,0.007744,0.007921
10:34:26,30-Sep-21,0.093,0.089,0.008649,0.007921
10:34:26,30-Sep-21,0.093,0.09,0.008649,0.0081
10:34:26,30-Sep-21,0.093,0.09,0.008649,0.0081
10:34:26,30-Sep-21,0.088,0.09,0.007744,0.0081
10:34:26,30-Sep-21,0.088,0.09,0.007744,0.0081
10:34:26,30-Sep-21,0.088,0.09,0.007744,0.0081
10:34:26,30-Sep-21,0.088,0.091,0.007744,0.008281
10:34:26,30-Sep-21,0.088,0.091,0.007744,0.008281
10:34:26,30-Sep-21,0.088,0.091,0.007744,0.008281
10:34:26,30-Sep-21,0.088,0.091,0.007744,0.008281
10:34:26,30-Sep-21,0.088,0.092,0.007744,0.008464
10:34:26,30-Sep-21,0.088,0.092,0.007744,0.008464
10:34:26,30-Sep-21,0.088,0.092,0.007744,0.008464
10:34:26,30-Sep-21,0.088,0.092,0.007744,0.008464
10:34:26,30-Sep-21,0.093,0.093,0.008649,0.008649
10:34:26,30-Sep-21,0.093,0.093,0.008649,0.008649
10:34:26,30-Sep-21,0.093,0.094,0.008649,0.008836
10:34:26,30-Sep-21,0.093,0.094,0.008649,0.008836
10:34:26,30-Sep-21,0.093,0.094,0.008649,0.008836
10:34:26,30-Sep-21,0.093,0.095,0.008649,0.009025
10:34:26,30-Sep-21,0.098,0.095,0.009604,0.009025
10:34:26,30-Sep-21,0.098,0.096,0.009604,0.009216
10:34:26,30-Sep-21,0.098,0.096,0.009604,0.009216
10:34:26,30-Sep-21,0.098,0.096,0.009604,0.009216
10:34:26,30-Sep-21,0.098,0.097,0.009604,0.009409
10:34:26,30-Sep-21,0.098,0.097,0.009604,0.009409
10:34:26,30-Sep-21,0.098,0.097,0.009604,0.009409
10:34:26,30-Sep-21,0.098,0.098,0.009604,0.009604
10:34:26,30-Sep-21,0.098,0.098,0.009604,0.009604
10:34:26,30-Sep-21,0.098,0.099,0.009604,0.009801
10:34:26,30-Sep-21,0.098,0.099,0.009604,0.009801
10:34:26,30-Sep-21,0.1025,0.099,0.01050625,0.009801
10:34:26,30-Sep-21,0.1025,0.099,0.01050625,0.009801
10:34:26,30-Sep-21,0.1025,0.1,0.01050625,0.01
10:34:27,30-Sep-21,0.1025,0.1,0.01050625,0.01
10:34:27,30-Sep-21,0.1025,0.1,0.01050625,0.01
10:34:27,30-Sep-21,0.1025,0.1,0.01050625,0.01
10:34:27,30-Sep-21,0.1025,0.101,0.01050625,0.010201
10:34:27,30-Sep-21,0.1025,0.101,0.01050625,0.010201
10:34:27,30-Sep-21,0.1025,0.101,0.01050625,0.010201
10:34:27,30-Sep-21,0.1025,0.101,0.01050625,0.010201
10:34:27,30-Sep-21,0.1025,0.101,0.01050625,0.010201
10:34:27,30-Sep-21,0.1025,0.101,0.01050625,0.010201
10:34:27,30-Sep-21,0.1025,0.101,0.01050625,0.010201
10:34:27,30-Sep-21,0.1025,0.102,0.01050625,0.010404
10:34:27,30-Sep-21,0.098,0.102,0.009604,0.010404
10:34:27,30-Sep-21,0.098,0.102,0.009604,0.010404
10:34:27,30-Sep-21,0.098,0.102,0.009604,0.010404
10:34:27,30-Sep-21,0.098,0.102,0.009604,0.010404
10:34:27,30-Sep-21,0.098,0.102,0.009604,0.010404
10:34:27,30-Sep-21,0.098,0.102,0.009604,0.010404
10:34:27,30-Sep-21,0.1025,0.102,0.01050625,0.010404
10:34:27,30-Sep-21,0.1025,0.102,0.01050625,0.010404
10:34:27,30-Sep-21,0.1025,0.102,0.01050625,0.010404
10:34:27,30-Sep-21,0.1025,0.102,0.01050625,0.010404
10:34:27,30-Sep-21,0.1025,0.102,0.01050625,0.010404
10:34:27,30-Sep-21,0.1025,0.102,0.01050625,0.010404
10:34:27,30-Sep-21,0.1025,0.102,0.01050625,0.010404
10:34:27,30-Sep-21,0.1025,0.102,0.01050625,0.010404
10:34:27,30-Sep-21,0.1025,0.102,0.01050625,0.010404
10:34:27,30-Sep-21,0.1075,0.102,0.01155625,0.010404
10:34:27,30-Sep-21,0.1075,0.102,0.01155625,0.010404
10:34:27,30-Sep-21,0.1025,0.102,0.01050625,0.010404
10:34:27,30-Sep-21,0.1025,0.102,0.01050625,0.010404
10:34:27,30-Sep-21,0.1025,0.102,0.01050625,0.010404
10:34:27,30-Sep-21,0.1025,0.102,0.01050625,0.010404
10:34:27,30-Sep-21,0.1025,0.102,0.01050625,0.010404
10:34:27,30-Sep-21,0.1025,0.102,0.01050625,0.010404
10:34:27,30-Sep-21,0.1025,0.103,0.01050625,0.010609
10:34:27,30-Sep-21,0.1025,0.103,0.01050625,0.010609
10:34:27,30-Sep-21,0.1025,0.103,0.01050625,0.010609
10:34:27,30-Sep-21,0.1025,0.103,0.01050625,0.010609
10:34:27,30-Sep-21,0.1025,0.103,0.01050625,0.010609
10:34:27,30-Sep-21,0.1025,0.103,0.01050625,0.010609
10:34:27,30-Sep-21,0.1025,0.103,0.01050625,0.010609
10:34:27,30-Sep-21,0.1025,0.104,0.01050625,0.010816
10:34:27,30-Sep-21,0.098,0.104,0.009604,0.010816
10:34:27,30-Sep-21,0.098,0.104,0.009604,0.010816
10:34:27,30-Sep-21,0.1025,0.104,0.01050625,0.010816
10:34:27,30-Sep-21,0.1025,0.105,0.01050625,0.011025
10:34:27,30-Sep-21,0.1025,0.105,0.01050625,0.011025
10:34:27,30-Sep-21,0.1025,0.105,0.01050625,0.011025
10:34:27,30-Sep-21,0.1025,0.106,0.01050625,0.011236
10:34:27,30-Sep-21,0.1025,0.106,0.01050625,0.011236
10:34:27,30-Sep-21,0.1075,0.106,0.01155625,0.011236
10:34:27,30-Sep-21,0.1075,0.106,0.01155625,0.011236
10:34:27,30-Sep-21,0.1075,0.107,0.01155625,0.011449
10:34:27,30-Sep-21,0.1075,0.107,0.01155625,0.011449
10:34:27,30-Sep-21,0.1075,0.107,0.01155625,0.011449
10:34:27,30-Sep-21,0.1075,0.108,0.01155625,0.011664
10:34:27,30-Sep-21,0.1075,0.108,0.01155625,0.011664
10:34:27,30-Sep-21,0.1075,0.108,0.01155625,0.011664
10:34:27,30-Sep-21,0.1125,0.109,0.01265625,0.011881
10:34:27,30-Sep-21,0.1125,0.109,0.01265625,0.011881
10:34:27,30-Sep-21,0.1125,0.109,0.01265625,0.011881
10:34:27,30-Sep-21,0.1125,0.109,0.01265625,0.011881
10:34:27,30-Sep-21,0.1125,0.11,0.01265625,0.0121
10:34:27,30-Sep-21,0.1125,0.11,0.01265625,0.0121
10:34:27,30-Sep-21,0.1125,0.11,0.01265625,0.0121
10:34:27,30-Sep-21,0.1125,0.11,0.01265625,0.0121
10:34:27,30-Sep-21,0.1125,0.111,0.01265625,0.012321
10:34:27,30-Sep-21,0.1125,0.111,0.01265625,0.012321
10:34:27,30-Sep-21,0.1125,0.111,0.01265625,0.012321
10:34:27,30-Sep-21,0.1125,0.111,0.01265625,0.012321
10:34:27,30-Sep-21,0.1125,0.111,0.01265625,0.012321
10:34:27,30-Sep-21,0.1125,0.111,0.01265625,0.012321
10:34:27,30-Sep-21,0.1125,0.111,0.01265625,0.012321
10:34:27,30-Sep-21,0.1125,0.111,0.01265625,0.012321
10:34:27,30-Sep-21,0.1125,0.111,0.01265625,0.012321
10:34:27,30-Sep-21,0.1125,0.111,0.01265625,0.012321
10:34:27,30-Sep-21,0.1075,0.112,0.01155625,0.012544
10:34:27,30-Sep-21,0.1075,0.112,0.01155625,0.012544
10:34:27,30-Sep-21,0.1075,0.112,0.01155625,0.012544
10:34:27,30-Sep-21,0.1075,0.112,0.01155625,0.012544
10:34:27,30-Sep-21,0.1075,0.112,0.01155625,0.012544
10:34:27,30-Sep-21,0.1125,0.112,0.01265625,0.012544
10:34:27,30-Sep-21,0.1125,0.112,0.01265625,0.012544
10:34:27,30-Sep-21,0.1125,0.112,0.01265625,0.012544
10:34:27,30-Sep-21,0.1125,0.112,0.01265625,0.012544
10:34:27,30-Sep-21,0.1125,0.112,0.01265625,0.012544
10:34:27,30-Sep-21,0.1125,0.112,0.01265625,0.012544
10:34:27,30-Sep-21,0.1125,0.112,0.01265625,0.012544
10:34:27,30-Sep-21,0.1125,0.112,0.01265625,0.012544
10:34:27,30-Sep-21,0.1125,0.112,0.01265625,0.012544
10:34:27,30-Sep-21,0.1125,0.112,0.01265625,0.012544
10:34:27,30-Sep-21,0.1125,0.112,0.01265625,0.012544
10:34:27,30-Sep-21,0.1125,0.112,0.01265625,0.012544
10:34:27,30-Sep-21,0.1125,0.112,0.01265625,0.012544
10:34:27,30-Sep-21,0.1125,0.112,0.01265625,0.012544
10:34:27,30-Sep-21,0.1125,0.112,0.01265625,0.012544
10:34:27,30-Sep-21,0.1125,0.113,0.01265625,0.012769
10:34:27,30-Sep-21,0.1125,0.113,0.01265625,0.012769
10:34:27,30-Sep-21,0.1125,0.113,0.01265625,0.012769
10:34:27,30-Sep-21,0.1125,0.113,0.01265625,0.012769
10:34:27,30-Sep-21,0.1125,0.113,0.01265625,0.012769
10:34:27,30-Sep-21,0.1125,0.113,0.01265625,0.012769
10:34:27,30-Sep-21,0.1125,0.114,0.01265625,0.012996
10:34:27,30-Sep-21,0.1125,0.114,0.01265625,0.012996
10:34:27,30-Sep-21,0.1125,0.114,0.01265625,0.012996
10:34:27,30-Sep-21,0.1125,0.114,0.01265625,0.012996
10:34:27,30-Sep-21,0.1125,0.115,0.01265625,0.013225
10:34:27,30-Sep-21,0.1125,0.115,0.01265625,0.013225
10:34:27,30-Sep-21,0.1125,0.115,0.01265625,0.013225
10:34:27,30-Sep-21,0.1125,0.116,0.01265625,0.013456
10:34:27,30-Sep-21,0.1125,0.116,0.01265625,0.013456
10:34:27,30-Sep-21,0.1125,0.116,0.01265625,0.013456
10:34:27,30-Sep-21,0.1125,0.116,0.01265625,0.013456
10:34:27,30-Sep-21,0.1125,0.117,0.01265625,0.013689
10:34:27,30-Sep-21,0.1175,0.117,0.01380625,0.013689
10:34:27,30-Sep-21,0.1175,0.117,0.01380625,0.013689
10:34:27,30-Sep-21,0.122,0.118,0.014884,0.013924
10:34:27,30-Sep-21,0.122,0.118,0.014884,0.013924
10:34:27,30-Sep-21,0.122,0.118,0.014884,0.013924
10:34:27,30-Sep-21,0.122,0.119,0.014884,0.014161
10:34:27,30-Sep-21,0.122,0.119,0.014884,0.014161
10:34:27,30-Sep-21,0.122,0.119,0.014884,0.014161
10:34:27,30-Sep-21,0.122,0.119,0.014884,0.014161
10:34:27,30-Sep-21,0.122,0.12,0.014884,0.0144
10:34:27,30-Sep-21,0.122,0.12,0.014884,0.0144
10:34:27,30-Sep-21,0.122,0.12,0.014884,0.0144
10:34:27,30-Sep-21,0.122,0.12,0.014884,0.0144
10:34:27,30-Sep-21,0.122,0.12,0.014884,0.0144
10:34:27,30-Sep-21,0.122,0.121,0.014884,0.014641
10:34:27,30-Sep-21,0.122,0.121,0.014884,0.014641
10:34:27,30-Sep-21,0.122,0.121,0.014884,0.014641
10:34:27,30-Sep-21,0.122,0.121,0.014884,0.014641
10:34:27,30-Sep-21,0.122,0.121,0.014884,0.014641
10:34:27,30-Sep-21,0.122,0.121,0.014884,0.014641
10:34:27,30-Sep-21,0.122,0.121,0.014884,0.014641
10:34:27,30-Sep-21,0.122,0.121,0.014884,0.014641
10:34:27,30-Sep-21,0.122,0.121,0.014884,0.014641
10:34:27,30-Sep-21,0.122,0.121,0.014884,0.014641
10:34:27,30-Sep-21,0.122,0.121,0.014884,0.014641
10:34:27,30-Sep-21,0.122,0.121,0.014884,0.014641
10:34:27,30-Sep-21,0.122,0.121,0.014884,0.014641
10:34:27,30-Sep-21,0.122,0.121,0.014884,0.014641
10:34:27,30-Sep-21,0.122,0.121,0.014884,0.014641
10:34:27,30-Sep-21,0.1175,0.121,0.01380625,0.014641
10:34:27,30-Sep-21,0.1175,0.121,0.01380625,0.014641
10:34:27,30-Sep-21,0.1175,0.121,0.01380625,0.014641
10:34:27,30-Sep-21,0.1175,0.121,0.01380625,0.014641
10:34:27,30-Sep-21,0.1175,0.121,0.01380625,0.014641
10:34:27,30-Sep-21,0.1175,0.121,0.01380625,0.014641
10:34:27,30-Sep-21,0.1175,0.121,0.01380625,0.014641
10:34:27,30-Sep-21,0.1175,0.121,0.01380625,0.014641
10:34:27,30-Sep-21,0.1175,0.121,0.01380625,0.014641
10:34:27,30-Sep-21,0.1175,0.121,0.01380625,0.014641
10:34:27,30-Sep-21,0.1175,0.121,0.01380625,0.014641
10:34:27,30-Sep-21,0.1175,0.121,0.01380625,0.014641
10:34:27,30-Sep-21,0.1175,0.121,0.01380625,0.014641
10:34:27,30-Sep-21,0.1175,0.121,0.01380625,0.014641
10:34:27,30-Sep-21,0.122,0.122,0.014884,0.014884
10:34:27,30-Sep-21,0.122,0.122,0.014884,0.014884
10:34:27,30-Sep-21,0.122,0.122,0.014884,0.014884
10:34:27,30-Sep-21,0.127,0.122,0.016129,0.014884
10:34:27,30-Sep-21,0.127,0.122,0.016129,0.014884
10:34:27,30-Sep-21,0.127,0.122,0.016129,0.014884
10:34:27,30-Sep-21,0.127,0.122,0.016129,0.014884
10:34:27,30-Sep-21,0.127,0.122,0.016129,0.014884
10:34:27,30-Sep-21,0.127,0.122,0.016129,0.014884
10:34:27,30-Sep-21,0.127,0.122,0.016129,0.014884
10:34:27,30-Sep-21,0.127,0.122,0.016129,0.014884
10:34:27,30-Sep-21,0.127,0.122,0.016129,0.014884
10:34:27,30-Sep-21,0.127,0.122,0.016129,0.014884
10:34:27,30-Sep-21,0.122,0.122,0.014884,0.014884
10:34:27,30-Sep-21,0.122,0.122,0.014884,0.014884
10:34:27,30-Sep-21,0.122,0.122,0.014884,0.014884
10:34:27,30-Sep-21,0.122,0.122,0.014884,0.014884
10:34:27,30-Sep-21,0.122,0.122,0.014884,0.014884
10:34:27,30-Sep-21,0.122,0.122,0.014884,0.014884
10:34:27,30-Sep-21,0.122,0.122,0.014884,0.014884
10:34:27,30-Sep-21,0.122,0.122,0.014884,0.014884
10:34:27,30-Sep-21,0.122,0.123,0.014884,0.015129
10:34:28,30-Sep-21,0.122,0.123,0.014884,0.015129
10:34:28,30-Sep-21,0.122,0.123,0.014884,0.015129
10:34:28,30-Sep-21,0.122,0.123,0.014884,0.015129
10:34:28,30-Sep-21,0.1175,0.123,0.01380625,0.015129
10:34:28,30-Sep-21,0.1175,0.123,0.01380625,0.015129
10:34:28,30-Sep-21,0.1175,0.123,0.01380625,0.015129
10:34:28,30-Sep-21,0.1175,0.123,0.01380625,0.015129
10:34:28,30-Sep-21,0.1175,0.124,0.01380625,0.015376
10:34:28,30-Sep-21,0.122,0.124,0.014884,0.015376
10:34:28,30-Sep-21,0.122,0.124,0.014884,0.015376
10:34:28,30-Sep-21,0.122,0.124,0.014884,0.015376
10:34:28,30-Sep-21,0.122,0.124,0.014884,0.015376
10:34:28,30-Sep-21,0.122,0.125,0.014884,0.015625
10:34:28,30-Sep-21,0.127,0.125,0.016129,0.015625
10:34:28,30-Sep-21,0.127,0.125,0.016129,0.015625
10:34:28,30-Sep-21,0.127,0.125,0.016129,0.015625
10:34:28,30-Sep-21,0.127,0.126,0.016129,0.015876
10:34:28,30-Sep-21,0.127,0.126,0.016129,0.015876
10:34:28,30-Sep-21,0.132,0.126,0.017424,0.015876
10:34:28,30-Sep-21,0.132,0.126,0.017424,0.015876
10:34:28,30-Sep-21,0.132,0.127,0.017424,0.016129
10:34:28,30-Sep-21,0.132,0.127,0.017424,0.016129
10:34:28,30-Sep-21,0.132,0.127,0.017424,0.016129
10:34:28,30-Sep-21,0.127,0.128,0.016129,0.016384
10:34:28,30-Sep-21,0.127,0.128,0.016129,0.016384
10:34:28,30-Sep-21,0.127,0.128,0.016129,0.016384
10:34:28,30-Sep-21,0.127,0.128,0.016129,0.016384
10:34:28,30-Sep-21,0.127,0.129,0.016129,0.016641
10:34:28,30-Sep-21,0.127,0.129,0.016129,0.016641
10:34:28,30-Sep-21,0.127,0.129,0.016129,0.016641
10:34:28,30-Sep-21,0.127,0.13,0.016129,0.0169
10:34:28,30-Sep-21,0.127,0.13,0.016129,0.0169
10:34:28,30-Sep-21,0.127,0.13,0.016129,0.0169
10:34:28,30-Sep-21,0.127,0.13,0.016129,0.0169
10:34:28,30-Sep-21,0.127,0.131,0.016129,0.017161
10:34:28,30-Sep-21,0.132,0.131,0.017424,0.017161
10:34:28,30-Sep-21,0.132,0.131,0.017424,0.017161
10:34:28,30-Sep-21,0.132,0.131,0.017424,0.017161
10:34:28,30-Sep-21,0.137,0.132,0.018769,0.017424
10:34:28,30-Sep-21,0.137,0.132,0.018769,0.017424
10:34:28,30-Sep-21,0.137,0.132,0.018769,0.017424
10:34:28,30-Sep-21,0.137,0.132,0.018769,0.017424
10:34:28,30-Sep-21,0.137,0.133,0.018769,0.017689
10:34:28,30-Sep-21,0.137,0.133,0.018769,0.017689
10:34:28,30-Sep-21,0.137,0.133,0.018769,0.017689
10:34:28,30-Sep-21,0.132,0.133,0.017424,0.017689
10:34:28,30-Sep-21,0.132,0.134,0.017424,0.017956
10:34:28,30-Sep-21,0.132,0.134,0.017424,0.017956
10:34:28,30-Sep-21,0.132,0.134,0.017424,0.017956
10:34:28,30-Sep-21,0.132,0.134,0.017424,0.017956
10:34:28,30-Sep-21,0.132,0.134,0.017424,0.017956
10:34:28,30-Sep-21,0.132,0.135,0.017424,0.018225
10:34:28,30-Sep-21,0.137,0.135,0.018769,0.018225
10:34:28,30-Sep-21,0.137,0.135,0.018769,0.018225
10:34:28,30-Sep-21,0.137,0.135,0.018769,0.018225
10:34:28,30-Sep-21,0.137,0.136,0.018769,0.018496
10:34:28,30-Sep-21,0.132,0.136,0.017424,0.018496
10:34:28,30-Sep-21,0.132,0.136,0.017424,0.018496
10:34:28,30-Sep-21,0.132,0.136,0.017424,0.018496
10:34:28,30-Sep-21,0.132,0.137,0.017424,0.018769
10:34:28,30-Sep-21,0.132,0.137,0.017424,0.018769
10:34:28,30-Sep-21,0.132,0.137,0.017424,0.018769
10:34:28,30-Sep-21,0.137,0.138,0.018769,0.019044
10:34:28,30-Sep-21,0.137,0.138,0.018769,0.019044
10:34:28,30-Sep-21,0.137,0.138,0.018769,0.019044
10:34:28,30-Sep-21,0.137,0.139,0.018769,0.019321
10:34:28,30-Sep-21,0.137,0.139,0.018769,0.019321
10:34:28,30-Sep-21,0.137,0.139,0.018769,0.019321
10:34:28,30-Sep-21,0.1415,0.139,0.02002225,0.019321
10:34:28,30-Sep-21,0.1415,0.14,0.02002225,0.0196
10:34:28,30-Sep-21,0.1415,0.14,0.02002225,0.0196
10:34:28,30-Sep-21,0.1415,0.14,0.02002225,0.0196
10:34:28,30-Sep-21,0.1415,0.141,0.02002225,0.019881
10:34:28,30-Sep-21,0.1415,0.141,0.02002225,0.019881
10:34:28,30-Sep-21,0.1415,0.141,0.02002225,0.019881
10:34:28,30-Sep-21,0.1465,0.141,0.02146225,0.019881
10:34:28,30-Sep-21,0.1465,0.142,0.02146225,0.020164
10:34:28,30-Sep-21,0.1465,0.142,0.02146225,0.020164
10:34:28,30-Sep-21,0.1465,0.142,0.02146225,0.020164
10:34:28,30-Sep-21,0.1465,0.142,0.02146225,0.020164
10:34:28,30-Sep-21,0.1465,0.142,0.02146225,0.020164
10:34:28,30-Sep-21,0.1465,0.142,0.02146225,0.020164
10:34:28,30-Sep-21,0.1465,0.143,0.02146225,0.020449
10:34:28,30-Sep-21,0.1415,0.143,0.02002225,0.020449
10:34:28,30-Sep-21,0.1415,0.143,0.02002225,0.020449
10:34:28,30-Sep-21,0.1415,0.143,0.02002225,0.020449
10:34:28,30-Sep-21,0.1415,0.143,0.02002225,0.020449
10:34:28,30-Sep-21,0.1415,0.143,0.02002225,0.020449
10:34:28,30-Sep-21,0.1415,0.143,0.02002225,0.020449
10:34:28,30-Sep-21,0.1415,0.143,0.02002225,0.020449
10:34:28,30-Sep-21,0.1415,0.143,0.02002225,0.020449
10:34:28,30-Sep-21,0.1415,0.144,0.02002225,0.020736
10:34:28,30-Sep-21,0.1415,0.144,0.02002225,0.020736
10:34:28,30-Sep-21,0.1415,0.144,0.02002225,0.020736
10:34:28,30-Sep-21,0.1415,0.144,0.02002225,0.020736
10:34:28,30-Sep-21,0.1415,0.144,0.02002225,0.020736
10:34:28,30-Sep-21,0.1415,0.144,0.02002225,0.020736
10:34:28,30-Sep-21,0.1415,0.144,0.02002225,0.020736
10:34:28,30-Sep-21,0.1415,0.144,0.02002225,0.020736
10:34:28,30-Sep-21,0.1415,0.144,0.02002225,0.020736
10:34:28,30-Sep-21,0.1415,0.144,0.02002225,0.020736
10:34:28,30-Sep-21,0.1465,0.144,0.02146225,0.020736
10:34:28,30-Sep-21,0.1465,0.144,0.02146225,0.020736
10:34:28,30-Sep-21,0.1465,0.145,0.02146225,0.021025
10:34:28,30-Sep-21,0.1465,0.145,0.02146225,0.021025
10:34:28,30-Sep-21,0.1465,0.145,0.02146225,0.021025
10:34:28,30-Sep-21,0.1465,0.145,0.02146225,0.021025
10:34:28,30-Sep-21,0.1465,0.145,0.02146225,0.021025
10:34:28,30-Sep-21,0.1465,0.145,0.02146225,0.021025
10:34:28,30-Sep-21,0.1465,0.145,0.02146225,0.021025
10:34:28,30-Sep-21,0.1465,0.145,0.02146225,0.021025
10:34:28,30-Sep-21,0.1465,0.146,0.02146225,0.021316
10:34:28,30-Sep-21,0.1465,0.146,0.02146225,0.021316
10:34:28,30-Sep-21,0.1465,0.146,0.02146225,0.021316
10:34:28,30-Sep-21,0.1465,0.146,0.02146225,0.021316
10:34:28,30-Sep-21,0.1465,0.146,0.02146225,0.021316
10:34:28,30-Sep-21,0.1465,0.146,0.02146225,0.021316
10:34:28,30-Sep-21,0.1465,0.146,0.02146225,0.021316
10:34:28,30-Sep-21,0.1465,0.147,0.02146225,0.021609
10:34:28,30-Sep-21,0.1465,0.147,0.02146225,0.021609
10:34:28,30-Sep-21,0.1465,0.147,0.02146225,0.021609
10:34:28,30-Sep-21,0.1465,0.147,0.02146225,0.021609
10:34:28,30-Sep-21,0.1465,0.147,0.02146225,0.021609
10:34:28,30-Sep-21,0.1465,0.147,0.02146225,0.021609
10:34:28,30-Sep-21,0.1465,0.148,0.02146225,0.021904
10:34:28,30-Sep-21,0.1465,0.148,0.02146225,0.021904
10:34:28,30-Sep-21,0.1465,0.148,0.02146225,0.021904
10:34:28,30-Sep-21,0.1465,0.148,0.02146225,0.021904
10:34:28,30-Sep-21,0.1465,0.148,0.02146225,0.021904
10:34:28,30-Sep-21,0.1465,0.148,0.02146225,0.021904
10:34:28,30-Sep-21,0.1465,0.149,0.02146225,0.022201
10:34:28,30-Sep-21,0.1465,0.149,0.02146225,0.022201
10:34:28,30-Sep-21,0.1465,0.149,0.02146225,0.022201
10:34:28,30-Sep-21,0.1465,0.149,0.02146225,0.022201
10:34:28,30-Sep-21,0.1465,0.149,0.02146225,0.022201
10:34:28,30-Sep-21,0.1515,0.149,0.02295225,0.022201
10:34:28,30-Sep-21,0.1515,0.15,0.02295225,0.0225
10:34:28,30-Sep-21,0.1515,0.15,0.02295225,0.0225
10:34:28,30-Sep-21,0.1515,0.15,0.02295225,0.0225
10:34:28,30-Sep-21,0.1515,0.15,0.02295225,0.0225
10:34:28,30-Sep-21,0.1515,0.15,0.02295225,0.0225
10:34:28,30-Sep-21,0.1515,0.15,0.02295225,0.0225
10:34:28,30-Sep-21,0.1515,0.15,0.02295225,0.0225
10:34:28,30-Sep-21,0.1515,0.15,0.02295225,0.0225
10:34:28,30-Sep-21,0.1515,0.15,0.02295225,0.0225
10:34:28,30-Sep-21,0.1515,0.151,0.02295225,0.022801
10:34:28,30-Sep-21,0.1515,0.151,0.02295225,0.022801
10:34:28,30-Sep-21,0.1565,0.151,0.02449225,0.022801
10:34:28,30-Sep-21,0.1565,0.151,0.02449225,0.022801
10:34:28,30-Sep-21,0.1515,0.151,0.02295225,0.022801
10:34:28,30-Sep-21,0.1515,0.151,0.02295225,0.022801
10:34:28,30-Sep-21,0.1515,0.151,0.02295225,0.022801
10:34:28,30-Sep-21,0.1565,0.151,0.02449225,0.022801
10:34:28,30-Sep-21,0.1565,0.151,0.02449225,0.022801
10:34:28,30-Sep-21,0.1565,0.151,0.02449225,0.022801
10:34:28,30-Sep-21,0.1465,0.151,0.02146225,0.022801
10:34:28,30-Sep-21,0.1465,0.151,0.02146225,0.022801
10:34:28,30-Sep-21,0.1465,0.151,0.02146225,0.022801
10:34:28,30-Sep-21,0.1465,0.151,0.02146225,0.022801
10:34:28,30-Sep-21,0.1465,0.151,0.02146225,0.022801
10:34:28,30-Sep-21,0.1465,0.151,0.02146225,0.022801
10:34:28,30-Sep-21,0.1465,0.151,0.02146225,0.022801
10:34:28,30-Sep-21,0.1465,0.151,0.02146225,0.022801
10:34:28,30-Sep-21,0.1465,0.151,0.02146225,0.022801
10:34:28,30-Sep-21,0.1465,0.151,0.02146225,0.022801
10:34:28,30-Sep-21,0.1465,0.151,0.02146225,0.022801
10:34:28,30-Sep-21,0.1465,0.151,0.02146225,0.022801
10:34:29,30-Sep-21,0.1465,0.151,0.02146225,0.022801
10:34:29,30-Sep-21,0.1515,0.151,0.02295225,0.022801
10:34:29,30-Sep-21,0.1515,0.151,0.02295225,0.022801
10:34:29,30-Sep-21,0.1515,0.151,0.02295225,0.022801
10:34:29,30-Sep-21,0.1515,0.151,0.02295225,0.022801
10:34:29,30-Sep-21,0.1515,0.151,0.02295225,0.022801
10:34:29,30-Sep-21,0.1565,0.151,0.02449225,0.022801
10:34:29,30-Sep-21,0.1565,0.151,0.02449225,0.022801
10:34:29,30-Sep-21,0.1565,0.151,0.02449225,0.022801
10:34:29,30-Sep-21,0.1565,0.151,0.02449225,0.022801
10:34:29,30-Sep-21,0.1565,0.151,0.02449225,0.022801
10:34:29,30-Sep-21,0.1565,0.151,0.02449225,0.022801
10:34:29,30-Sep-21,0.1565,0.151,0.02449225,0.022801
10:34:29,30-Sep-21,0.1565,0.151,0.02449225,0.022801
10:34:29,30-Sep-21,0.1515,0.152,0.02295225,0.023104
10:34:29,30-Sep-21,0.1515,0.152,0.02295225,0.023104
10:34:29,30-Sep-21,0.1515,0.152,0.02295225,0.023104
10:34:29,30-Sep-21,0.1515,0.152,0.02295225,0.023104
10:34:29,30-Sep-21,0.1515,0.152,0.02295225,0.023104
10:34:29,30-Sep-21,0.1515,0.152,0.02295225,0.023104
10:34:29,30-Sep-21,0.1515,0.152,0.02295225,0.023104
10:34:29,30-Sep-21,0.1515,0.152,0.02295225,0.023104
10:34:29,30-Sep-21,0.1465,0.152,0.02146225,0.023104
10:34:29,30-Sep-21,0.1465,0.152,0.02146225,0.023104
10:34:29,30-Sep-21,0.1515,0.152,0.02295225,0.023104
10:34:29,30-Sep-21,0.1515,0.153,0.02295225,0.023409
10:34:29,30-Sep-21,0.1515,0.153,0.02295225,0.023409
10:34:29,30-Sep-21,0.1515,0.153,0.02295225,0.023409
10:34:29,30-Sep-21,0.1515,0.153,0.02295225,0.023409
10:34:29,30-Sep-21,0.1515,0.153,0.02295225,0.023409
10:34:29,30-Sep-21,0.1565,0.154,0.02449225,0.023716
10:34:29,30-Sep-21,0.1565,0.154,0.02449225,0.023716
10:34:29,30-Sep-21,0.1565,0.154,0.02449225,0.023716
10:34:29,30-Sep-21,0.1565,0.154,0.02449225,0.023716
10:34:29,30-Sep-21,0.1565,0.155,0.02449225,0.024025
10:34:29,30-Sep-21,0.1565,0.155,0.02449225,0.024025
10:34:29,30-Sep-21,0.1565,0.155,0.02449225,0.024025
10:34:29,30-Sep-21,0.1565,0.156,0.02449225,0.024336
10:34:29,30-Sep-21,0.1565,0.156,0.02449225,0.024336
10:34:29,30-Sep-21,0.1565,0.156,0.02449225,0.024336
10:34:29,30-Sep-21,0.1565,0.157,0.02449225,0.024649
10:34:29,30-Sep-21,0.1515,0.157,0.02295225,0.024649
10:34:29,30-Sep-21,0.1515,0.158,0.02295225,0.024964
10:34:29,30-Sep-21,0.1515,0.158,0.02295225,0.024964
10:34:29,30-Sep-21,0.1565,0.159,0.02449225,0.025281
10:34:29,30-Sep-21,0.1565,0.159,0.02449225,0.025281
10:34:29,30-Sep-21,0.1565,0.159,0.02449225,0.025281
10:34:29,30-Sep-21,0.1565,0.16,0.02449225,0.0256
10:34:29,30-Sep-21,0.1565,0.16,0.02449225,0.0256
10:34:29,30-Sep-21,0.1565,0.161,0.02449225,0.025921
10:34:29,30-Sep-21,0.1615,0.161,0.02608225,0.025921
10:34:29,30-Sep-21,0.1615,0.162,0.02608225,0.026244
10:34:29,30-Sep-21,0.1615,0.162,0.02608225,0.026244
10:34:29,30-Sep-21,0.1615,0.162,0.02608225,0.026244
10:34:29,30-Sep-21,0.1615,0.163,0.02608225,0.026569
10:34:29,30-Sep-21,0.1615,0.163,0.02608225,0.026569
10:34:29,30-Sep-21,0.1615,0.163,0.02608225,0.026569
10:34:29,30-Sep-21,0.1615,0.163,0.02608225,0.026569
10:34:29,30-Sep-21,0.166,0.164,0.027556,0.026896
10:34:29,30-Sep-21,0.166,0.164,0.027556,0.026896
10:34:29,30-Sep-21,0.166,0.164,0.027556,0.026896
10:34:29,30-Sep-21,0.166,0.164,0.027556,0.026896
10:34:29,30-Sep-21,0.166,0.164,0.027556,0.026896
10:34:29,30-Sep-21,0.1615,0.163,0.02608225,0.026569
10:34:29,30-Sep-21,0.1615,0.163,0.02608225,0.026569
10:34:29,30-Sep-21,0.1615,0.163,0.02608225,0.026569
10:34:29,30-Sep-21,0.1615,0.163,0.02608225,0.026569
10:34:29,30-Sep-21,0.1615,0.162,0.02608225,0.026244
10:34:29,30-Sep-21,0.1615,0.162,0.02608225,0.026244
10:34:29,30-Sep-21,0.1615,0.161,0.02608225,0.025921
10:34:29,30-Sep-21,0.1565,0.161,0.02449225,0.025921
10:34:29,30-Sep-21,0.1565,0.16,0.02449225,0.0256
10:34:29,30-Sep-21,0.1565,0.159,0.02449225,0.025281
10:34:29,30-Sep-21,0.1565,0.159,0.02449225,0.025281
10:34:29,30-Sep-21,0.1565,0.158,0.02449225,0.024964
10:34:29,30-Sep-21,0.1565,0.157,0.02449225,0.024649
10:34:29,30-Sep-21,0.1565,0.156,0.02449225,0.024336
10:34:29,30-Sep-21,0.1565,0.155,0.02449225,0.024025
10:34:29,30-Sep-21,0.1565,0.154,0.02449225,0.023716
10:34:29,30-Sep-21,0.1565,0.153,0.02449225,0.023409
10:34:29,30-Sep-21,0.1615,0.152,0.02608225,0.023104
10:34:29,30-Sep-21,0.1615,0.151,0.02608225,0.022801
10:34:29,30-Sep-21,0.1615,0.15,0.02608225,0.0225
10:34:29,30-Sep-21,0.1615,0.149,0.02608225,0.022201
10:34:29,30-Sep-21,0.1615,0.148,0.02608225,0.021904
10:34:29,30-Sep-21,0.1615,0.147,0.02608225,0.021609
10:34:29,30-Sep-21,0.1615,0.146,0.02608225,0.021316
10:34:29,30-Sep-21,0.1615,0.146,0.02608225,0.021316
10:34:29,30-Sep-21,0.1615,0.145,0.02608225,0.021025
10:34:29,30-Sep-21,0.1615,0.145,0.02608225,0.021025
10:34:29,30-Sep-21,0.1615,0.145,0.02608225,0.021025
10:34:29,30-Sep-21,0.1615,0.145,0.02608225,0.021025
10:34:29,30-Sep-21,0.1615,0.145,0.02608225,0.021025
10:34:29,30-Sep-21,0.1615,0.145,0.02608225,0.021025
10:34:29,30-Sep-21,0.1615,0.146,0.02608225,0.021316
10:34:29,30-Sep-21,0.1615,0.147,0.02608225,0.021609
10:34:29,30-Sep-21,0.1615,0.148,0.02608225,0.021904
10:34:29,30-Sep-21,0.1615,0.15,0.02608225,0.0225
10:34:29,30-Sep-21,0.166,0.152,0.027556,0.023104
10:34:29,30-Sep-21,0.166,0.155,0.027556,0.024025
10:34:29,30-Sep-21,0.166,0.158,0.027556,0.024964
10:34:29,30-Sep-21,0.166,0.161,0.027556,0.025921
10:34:29,30-Sep-21,0.166,0.165,0.027556,0.027225
10:34:29,30-Sep-21,0.166,0.169,0.027556,0.028561
10:34:29,30-Sep-21,0.166,0.174,0.027556,0.030276
10:34:29,30-Sep-21,0.166,0.18,0.027556,0.0324
10:34:29,30-Sep-21,0.166,0.185,0.027556,0.034225
10:34:29,30-Sep-21,0.166,0.192,0.027556,0.036864
10:34:29,30-Sep-21,0.166,0.199,0.027556,0.039601
10:34:29,30-Sep-21,0.166,0.206,0.027556,0.042436
10:34:29,30-Sep-21,0.166,0.214,0.027556,0.045796
10:34:29,30-Sep-21,0.166,0.222,0.027556,0.049284
10:34:29,30-Sep-21,0.166,0.231,0.027556,0.053361
10:34:29,30-Sep-21,0.166,0.24,0.027556,0.0576
10:34:29,30-Sep-21,0.166,0.25,0.027556,0.0625
10:34:29,30-Sep-21,0.181,0.26,0.032761,0.0676
10:34:29,30-Sep-21,0.181,0.27,0.032761,0.0729
10:34:29,30-Sep-21,0.181,0.28,0.032761,0.0784
10:34:29,30-Sep-21,0.181,0.291,0.032761,0.084681
10:34:29,30-Sep-21,0.181,0.302,0.032761,0.091204
10:34:29,30-Sep-21,0.2735,0.312,0.07480225,0.097344
10:34:29,30-Sep-21,0.2735,0.323,0.07480225,0.104329
10:34:29,30-Sep-21,0.3765,0.334,0.14175225,0.111556
10:34:29,30-Sep-21,0.3765,0.344,0.14175225,0.118336
10:34:29,30-Sep-21,0.4545,0.354,0.20657025,0.125316
10:34:29,30-Sep-21,0.4935,0.364,0.24354225,0.132496
10:34:29,30-Sep-21,0.4935,0.373,0.24354225,0.139129
10:34:29,30-Sep-21,0.489,0.382,0.239121,0.145924
10:34:29,30-Sep-21,0.489,0.391,0.239121,0.152881
10:34:29,30-Sep-21,0.489,0.399,0.239121,0.159201
10:34:29,30-Sep-21,0.489,0.406,0.239121,0.164836
10:34:29,30-Sep-21,0.489,0.413,0.239121,0.170569
10:34:29,30-Sep-21,0.489,0.419,0.239121,0.175561
10:34:29,30-Sep-21,0.445,0.424,0.198025,0.179776
10:34:29,30-Sep-21,0.445,0.429,0.198025,0.184041
10:34:29,30-Sep-21,0.445,0.433,0.198025,0.187489
10:34:29,30-Sep-21,0.445,0.436,0.198025,0.190096
10:34:29,30-Sep-21,0.4545,0.438,0.20657025,0.191844
10:34:29,30-Sep-21,0.4545,0.44,0.20657025,0.1936
10:34:29,30-Sep-21,0.4545,0.441,0.20657025,0.194481
10:34:29,30-Sep-21,0.4545,0.441,0.20657025,0.194481
10:34:29,30-Sep-21,0.4545,0.441,0.20657025,0.194481
10:34:29,30-Sep-21,0.44,0.44,0.1936,0.1936
10:34:29,30-Sep-21,0.44,0.439,0.1936,0.192721
10:34:29,30-Sep-21,0.425,0.436,0.180625,0.190096
10:34:29,30-Sep-21,0.425,0.434,0.180625,0.188356
10:34:29,30-Sep-21,0.4055,0.431,0.16443025,0.185761
10:34:29,30-Sep-21,0.4055,0.427,0.16443025,0.182329
10:34:29,30-Sep-21,0.391,0.423,0.152881,0.178929
10:34:29,30-Sep-21,0.391,0.418,0.152881,0.174724
10:34:29,30-Sep-21,0.391,0.413,0.152881,0.170569
10:34:29,30-Sep-21,0.386,0.408,0.148996,0.166464
10:34:29,30-Sep-21,0.386,0.402,0.148996,0.161604
10:34:29,30-Sep-21,0.386,0.396,0.148996,0.156816
10:34:29,30-Sep-21,0.386,0.39,0.148996,0.1521
10:34:29,30-Sep-21,0.3715,0.384,0.13801225,0.147456
10:34:29,30-Sep-21,0.3715,0.378,0.13801225,0.142884
10:34:30,30-Sep-21,0.3615,0.371,0.13068225,0.137641
10:34:30,30-Sep-21,0.3615,0.364,0.13068225,0.132496
10:34:30,30-Sep-21,0.342,0.358,0.116964,0.128164
10:34:30,30-Sep-21,0.342,0.351,0.116964,0.123201
10:34:30,30-Sep-21,0.342,0.344,0.116964,0.118336
10:34:30,30-Sep-21,0.3225,0.337,0.10400625,0.113569
10:34:30,30-Sep-21,0.3225,0.331,0.10400625,0.109561
10:34:30,30-Sep-21,0.308,0.324,0.094864,0.104976
10:34:30,30-Sep-21,0.308,0.317,0.094864,0.100489
10:34:30,30-Sep-21,0.308,0.311,0.094864,0.096721
10:34:30,30-Sep-21,0.308,0.305,0.094864,0.093025
10:34:30,30-Sep-21,0.2935,0.298,0.08614225,0.088804
10:34:30,30-Sep-21,0.2935,0.292,0.08614225,0.085264
10:34:30,30-Sep-21,0.2785,0.286,0.07756225,0.081796
10:34:30,30-Sep-21,0.2785,0.281,0.07756225,0.078961
10:34:30,30-Sep-21,0.259,0.275,0.067081,0.075625
10:34:30,30-Sep-21,0.259,0.27,0.067081,0.0729
10:34:30,30-Sep-21,0.259,0.265,0.067081,0.070225
10:34:30,30-Sep-21,0.259,0.26,0.067081,0.0676
10:34:30,30-Sep-21,0.259,0.255,0.067081,0.065025
10:34:30,30-Sep-21,0.259,0.25,0.067081,0.0625
10:34:30,30-Sep-21,0.259,0.246,0.067081,0.060516
10:34:30,30-Sep-21,0.2445,0.241,0.05978025,0.058081
10:34:30,30-Sep-21,0.2445,0.237,0.05978025,0.056169
10:34:30,30-Sep-21,0.2295,0.234,0.05267025,0.054756
10:34:30,30-Sep-21,0.2295,0.23,0.05267025,0.0529
10:34:30,30-Sep-21,0.22,0.226,0.0484,0.051076
10:34:30,30-Sep-21,0.22,0.223,0.0484,0.049729
10:34:30,30-Sep-21,0.215,0.22,0.046225,0.0484
10:34:30,30-Sep-21,0.215,0.217,0.046225,0.047089
10:34:30,30-Sep-21,0.215,0.214,0.046225,0.045796
10:34:30,30-Sep-21,0.21,0.211,0.0441,0.044521
10:34:30,30-Sep-21,0.21,0.209,0.0441,0.043681
10:34:30,30-Sep-21,0.21,0.206,0.0441,0.042436
10:34:30,30-Sep-21,0.21,0.204,0.0441,0.041616
10:34:30,30-Sep-21,0.2005,0.202,0.04020025,0.040804
10:34:30,30-Sep-21,0.2005,0.2,0.04020025,0.04
10:34:30,30-Sep-21,0.2005,0.198,0.04020025,0.039204
10:34:30,30-Sep-21,0.2005,0.196,0.04020025,0.038416
10:34:30,30-Sep-21,0.1955,0.194,0.03822025,0.037636
10:34:30,30-Sep-21,0.1955,0.192,0.03822025,0.036864
10:34:30,30-Sep-21,0.1955,0.191,0.03822025,0.036481
10:34:30,30-Sep-21,0.1905,0.189,0.03629025,0.035721
10:34:30,30-Sep-21,0.1905,0.188,0.03629025,0.035344
10:34:30,30-Sep-21,0.1905,0.186,0.03629025,0.034596
10:34:30,30-Sep-21,0.181,0.184,0.032761,0.033856
10:34:30,30-Sep-21,0.181,0.183,0.032761,0.033489
10:34:30,30-Sep-21,0.181,0.182,0.032761,0.033124
10:34:30,30-Sep-21,0.181,0.18,0.032761,0.0324
10:34:30,30-Sep-21,0.181,0.179,0.032761,0.032041
10:34:30,30-Sep-21,0.181,0.177,0.032761,0.031329
10:34:30,30-Sep-21,0.181,0.176,0.032761,0.030976
10:34:30,30-Sep-21,0.181,0.175,0.032761,0.030625
10:34:30,30-Sep-21,0.181,0.173,0.032761,0.029929
10:34:30,30-Sep-21,0.176,0.172,0.030976,0.029584
10:34:30,30-Sep-21,0.176,0.17,0.030976,0.0289
10:34:30,30-Sep-21,0.176,0.169,0.030976,0.028561
10:34:30,30-Sep-21,0.171,0.168,0.029241,0.028224
10:34:30,30-Sep-21,0.171,0.166,0.029241,0.027556
10:34:30,30-Sep-21,0.171,0.165,0.029241,0.027225
10:34:30,30-Sep-21,0.166,0.163,0.027556,0.026569
10:34:30,30-Sep-21,0.166,0.162,0.027556,0.026244
10:34:30,30-Sep-21,0.166,0.161,0.027556,0.025921
10:34:30,30-Sep-21,0.1565,0.159,0.02449225,0.025281
10:34:30,30-Sep-21,0.1565,0.158,0.02449225,0.024964
10:34:30,30-Sep-21,0.1565,0.157,0.02449225,0.024649
10:34:30,30-Sep-21,0.1515,0.155,0.02295225,0.024025
10:34:30,30-Sep-21,0.1515,0.154,0.02295225,0.023716
10:34:30,30-Sep-21,0.1515,0.153,0.02295225,0.023409
10:34:30,30-Sep-21,0.1515,0.152,0.02295225,0.023104
10:34:30,30-Sep-21,0.1465,0.151,0.02146225,0.022801
10:34:30,30-Sep-21,0.1465,0.149,0.02146225,0.022201
10:34:30,30-Sep-21,0.1415,0.148,0.02002225,0.021904
10:34:30,30-Sep-21,0.1415,0.147,0.02002225,0.021609
10:34:30,30-Sep-21,0.1415,0.146,0.02002225,0.021316
10:34:30,30-Sep-21,0.1415,0.146,0.02002225,0.021316
10:34:30,30-Sep-21,0.1415,0.145,0.02002225,0.021025
10:34:30,30-Sep-21,0.1415,0.144,0.02002225,0.020736
10:34:30,30-Sep-21,0.1415,0.143,0.02002225,0.020449
10:34:30,30-Sep-21,0.137,0.143,0.018769,0.020449
10:34:30,30-Sep-21,0.137,0.142,0.018769,0.020164
10:34:30,30-Sep-21,0.137,0.141,0.018769,0.019881
10:34:30,30-Sep-21,0.137,0.141,0.018769,0.019881
10:34:30,30-Sep-21,0.137,0.141,0.018769,0.019881
10:34:30,30-Sep-21,0.137,0.14,0.018769,0.0196
10:34:30,30-Sep-21,0.137,0.14,0.018769,0.0196
10:34:30,30-Sep-21,0.137,0.14,0.018769,0.0196
10:34:30,30-Sep-21,0.137,0.139,0.018769,0.019321
10:34:30,30-Sep-21,0.1415,0.139,0.02002225,0.019321
10:34:30,30-Sep-21,0.1415,0.139,0.02002225,0.019321
10:34:30,30-Sep-21,0.1415,0.139,0.02002225,0.019321
10:34:30,30-Sep-21,0.1415,0.139,0.02002225,0.019321
10:34:30,30-Sep-21,0.1415,0.139,0.02002225,0.019321
10:34:30,30-Sep-21,0.1415,0.139,0.02002225,0.019321
10:34:30,30-Sep-21,0.1415,0.139,0.02002225,0.019321
10:34:30,30-Sep-21,0.1415,0.139,0.02002225,0.019321
10:34:30,30-Sep-21,0.1415,0.139,0.02002225,0.019321
10:34:30,30-Sep-21,0.1415,0.139,0.02002225,0.019321
10:34:30,30-Sep-21,0.1415,0.14,0.02002225,0.0196
10:34:30,30-Sep-21,0.1415,0.14,0.02002225,0.0196
10:34:30,30-Sep-21,0.1415,0.14,0.02002225,0.0196
10:34:30,30-Sep-21,0.1415,0.14,0.02002225,0.0196
10:34:30,30-Sep-21,0.1415,0.14,0.02002225,0.0196
10:34:30,30-Sep-21,0.1415,0.14,0.02002225,0.0196
10:34:30,30-Sep-21,0.1415,0.14,0.02002225,0.0196
10:34:30,30-Sep-21,0.1415,0.14,0.02002225,0.0196
10:34:30,30-Sep-21,0.1415,0.141,0.02002225,0.019881
10:34:30,30-Sep-21,0.1415,0.141,0.02002225,0.019881
10:34:30,30-Sep-21,0.1415,0.141,0.02002225,0.019881
10:34:30,30-Sep-21,0.1415,0.141,0.02002225,0.019881
10:34:30,30-Sep-21,0.1415,0.141,0.02002225,0.019881
10:34:30,30-Sep-21,0.1415,0.141,0.02002225,0.019881
10:34:30,30-Sep-21,0.1415,0.141,0.02002225,0.019881
10:34:30,30-Sep-21,0.1415,0.141,0.02002225,0.019881
10:34:30,30-Sep-21,0.1415,0.141,0.02002225,0.019881
10:34:30,30-Sep-21,0.1415,0.141,0.02002225,0.019881
10:34:30,30-Sep-21,0.1415,0.141,0.02002225,0.019881
10:34:30,30-Sep-21,0.1415,0.141,0.02002225,0.019881
10:34:30,30-Sep-21,0.1415,0.141,0.02002225,0.019881
10:34:30,30-Sep-21,0.1415,0.141,0.02002225,0.019881
10:34:30,30-Sep-21,0.137,0.141,0.018769,0.019881
10:34:30,30-Sep-21,0.137,0.141,0.018769,0.019881
10:34:30,30-Sep-21,0.137,0.141,0.018769,0.019881
10:34:30,30-Sep-21,0.137,0.141,0.018769,0.019881
10:34:30,30-Sep-21,0.1415,0.14,0.02002225,0.0196
10:34:30,30-Sep-21,0.1415,0.14,0.02002225,0.0196
10:34:30,30-Sep-21,0.1415,0.14,0.02002225,0.0196
10:34:30,30-Sep-21,0.1415,0.14,0.02002225,0.0196
10:34:30,30-Sep-21,0.1415,0.14,0.02002225,0.0196
10:34:30,30-Sep-21,0.1415,0.14,0.02002225,0.0196
10:34:30,30-Sep-21,0.1415,0.139,0.02002225,0.019321
10:34:30,30-Sep-21,0.1415,0.139,0.02002225,0.019321
10:34:30,30-Sep-21,0.1415,0.139,0.02002225,0.019321
10:34:30,30-Sep-21,0.1415,0.139,0.02002225,0.019321
10:34:30,30-Sep-21,0.137,0.139,0.018769,0.019321
10:34:30,30-Sep-21,0.137,0.138,0.018769,0.019044
10:34:30,30-Sep-21,0.137,0.138,0.018769,0.019044
10:34:30,30-Sep-21,0.137,0.138,0.018769,0.019044
10:34:30,30-Sep-21,0.137,0.138,0.018769,0.019044
10:34:30,30-Sep-21,0.137,0.138,0.018769,0.019044
10:34:30,30-Sep-21,0.137,0.137,0.018769,0.018769
10:34:30,30-Sep-21,0.137,0.137,0.018769,0.018769
10:34:30,30-Sep-21,0.137,0.137,0.018769,0.018769
10:34:30,30-Sep-21,0.137,0.137,0.018769,0.018769
10:34:30,30-Sep-21,0.137,0.137,0.018769,0.018769
10:34:30,30-Sep-21,0.137,0.137,0.018769,0.018769
10:34:30,30-Sep-21,0.137,0.136,0.018769,0.018496
10:34:30,30-Sep-21,0.137,0.136,0.018769,0.018496
10:34:30,30-Sep-21,0.137,0.136,0.018769,0.018496
10:34:30,30-Sep-21,0.137,0.136,0.018769,0.018496
10:34:30,30-Sep-21,0.137,0.136,0.018769,0.018496
10:34:30,30-Sep-21,0.132,0.136,0.017424,0.018496
10:34:30,30-Sep-21,0.132,0.136,0.017424,0.018496
10:34:30,30-Sep-21,0.132,0.136,0.017424,0.018496
10:34:30,30-Sep-21,0.132,0.136,0.017424,0.018496
10:34:30,30-Sep-21,0.132,0.136,0.017424,0.018496
10:34:30,30-Sep-21,0.132,0.136,0.017424,0.018496
10:34:30,30-Sep-21,0.132,0.136,0.017424,0.018496
10:34:30,30-Sep-21,0.132,0.136,0.017424,0.018496
10:34:30,30-Sep-21,0.132,0.136,0.017424,0.018496
10:34:30,30-Sep-21,0.137,0.136,0.018769,0.018496
10:34:30,30-Sep-21,0.137,0.136,0.018769,0.018496
10:34:30,30-Sep-21,0.137,0.136,0.018769,0.018496
10:34:30,30-Sep-21,0.1415,0.136,0.02002225,0.018496
10:34:30,30-Sep-21,0.1415,0.136,0.02002225,0.018496
10:34:30,30-Sep-21,0.1415,0.136,0.02002225,0.018496
10:34:30,30-Sep-21,0.137,0.136,0.018769,0.018496
10:34:30,30-Sep-21,0.137,0.136,0.018769,0.018496
10:34:30,30-Sep-21,0.137,0.136,0.018769,0.018496
10:34:30,30-Sep-21,0.137,0.136,0.018769,0.018496
10:34:30,30-Sep-21,0.137,0.136,0.018769,0.018496
10:34:30,30-Sep-21,0.137,0.136,0.018769,0.018496
10:34:30,30-Sep-21,0.137,0.136,0.018769,0.018496
10:34:30,30-Sep-21,0.137,0.136,0.018769,0.018496
10:34:30,30-Sep-21,0.137,0.136,0.018769,0.018496
10:34:31,30-Sep-21,0.137,0.136,0.018769,0.018496
10:34:31,30-Sep-21,0.137,0.136,0.018769,0.018496
10:34:31,30-Sep-21,0.137,0.135,0.018769,0.018225
10:34:31,30-Sep-21,0.137,0.135,0.018769,0.018225
10:34:31,30-Sep-21,0.137,0.135,0.018769,0.018225
10:34:31,30-Sep-21,0.132,0.135,0.017424,0.018225
10:34:31,30-Sep-21,0.132,0.135,0.017424,0.018225
10:34:31,30-Sep-21,0.132,0.135,0.017424,0.018225
10:34:31,30-Sep-21,0.132,0.134,0.017424,0.017956
10:34:31,30-Sep-21,0.132,0.134,0.017424,0.017956
10:34:31,30-Sep-21,0.132,0.134,0.017424,0.017956
10:34:31,30-Sep-21,0.132,0.134,0.017424,0.017956
10:34:31,30-Sep-21,0.132,0.133,0.017424,0.017689
10:34:31,30-Sep-21,0.132,0.133,0.017424,0.017689
10:34:31,30-Sep-21,0.132,0.133,0.017424,0.017689
10:34:31,30-Sep-21,0.132,0.133,0.017424,0.017689
10:34:31,30-Sep-21,0.132,0.132,0.017424,0.017424
10:34:31,30-Sep-21,0.132,0.132,0.017424,0.017424
10:34:31,30-Sep-21,0.132,0.132,0.017424,0.017424
10:34:31,30-Sep-21,0.132,0.131,0.017424,0.017161
10:34:31,30-Sep-21,0.132,0.131,0.017424,0.017161
10:34:31,30-Sep-21,0.132,0.131,0.017424,0.017161
10:34:31,30-Sep-21,0.132,0.13,0.017424,0.0169
10:34:31,30-Sep-21,0.132,0.13,0.017424,0.0169
10:34:31,30-Sep-21,0.132,0.13,0.017424,0.0169
10:34:31,30-Sep-21,0.132,0.129,0.017424,0.016641
10:34:31,30-Sep-21,0.132,0.129,0.017424,0.016641
10:34:31,30-Sep-21,0.132,0.128,0.017424,0.016384
10:34:31,30-Sep-21,0.132,0.128,0.017424,0.016384
10:34:31,30-Sep-21,0.127,0.128,0.016129,0.016384
10:34:31,30-Sep-21,0.127,0.127,0.016129,0.016129
10:34:31,30-Sep-21,0.127,0.127,0.016129,0.016129
10:34:31,30-Sep-21,0.127,0.127,0.016129,0.016129
10:34:31,30-Sep-21,0.127,0.126,0.016129,0.015876
10:34:31,30-Sep-21,0.127,0.126,0.016129,0.015876
10:34:31,30-Sep-21,0.127,0.126,0.016129,0.015876
10:34:31,30-Sep-21,0.122,0.125,0.014884,0.015625
10:34:31,30-Sep-21,0.122,0.125,0.014884,0.015625
10:34:31,30-Sep-21,0.122,0.125,0.014884,0.015625
10:34:31,30-Sep-21,0.122,0.125,0.014884,0.015625
10:34:31,30-Sep-21,0.122,0.124,0.014884,0.015376
10:34:31,30-Sep-21,0.122,0.124,0.014884,0.015376
10:34:31,30-Sep-21,0.122,0.124,0.014884,0.015376
10:34:31,30-Sep-21,0.122,0.124,0.014884,0.015376
10:34:31,30-Sep-21,0.122,0.124,0.014884,0.015376
10:34:31,30-Sep-21,0.122,0.124,0.014884,0.015376
10:34:31,30-Sep-21,0.127,0.124,0.016129,0.015376
10:34:31,30-Sep-21,0.127,0.124,0.016129,0.015376
10:34:31,30-Sep-21,0.127,0.124,0.016129,0.015376
10:34:31,30-Sep-21,0.127,0.124,0.016129,0.015376
10:34:31,30-Sep-21,0.127,0.124,0.016129,0.015376
10:34:31,30-Sep-21,0.127,0.124,0.016129,0.015376
10:34:31,30-Sep-21,0.127,0.124,0.016129,0.015376
10:34:31,30-Sep-21,0.127,0.125,0.016129,0.015625
10:34:31,30-Sep-21,0.127,0.125,0.016129,0.015625
10:34:31,30-Sep-21,0.127,0.125,0.016129,0.015625
10:34:31,30-Sep-21,0.127,0.126,0.016129,0.015876
10:34:31,30-Sep-21,0.127,0.126,0.016129,0.015876
10:34:31,30-Sep-21,0.127,0.126,0.016129,0.015876
10:34:31,30-Sep-21,0.122,0.127,0.014884,0.016129
10:34:31,30-Sep-21,0.122,0.127,0.014884,0.016129
10:34:31,30-Sep-21,0.122,0.128,0.014884,0.016384
10:34:31,30-Sep-21,0.122,0.128,0.014884,0.016384
10:34:31,30-Sep-21,0.122,0.129,0.014884,0.016641
10:34:31,30-Sep-21,0.122,0.13,0.014884,0.0169
10:34:31,30-Sep-21,0.122,0.13,0.014884,0.0169
10:34:31,30-Sep-21,0.122,0.131,0.014884,0.017161
10:34:31,30-Sep-21,0.122,0.132,0.014884,0.017424
10:34:31,30-Sep-21,0.127,0.132,0.016129,0.017424
10:34:31,30-Sep-21,0.127,0.133,0.016129,0.017689
10:34:31,30-Sep-21,0.137,0.134,0.018769,0.017956
10:34:31,30-Sep-21,0.137,0.135,0.018769,0.018225
10:34:31,30-Sep-21,0.137,0.135,0.018769,0.018225
10:34:31,30-Sep-21,0.1415,0.136,0.02002225,0.018496
10:34:31,30-Sep-21,0.1415,0.137,0.02002225,0.018769
10:34:31,30-Sep-21,0.1415,0.137,0.02002225,0.018769
10:34:31,30-Sep-21,0.1415,0.138,0.02002225,0.019044
10:34:31,30-Sep-21,0.1415,0.139,0.02002225,0.019321
10:34:31,30-Sep-21,0.1415,0.139,0.02002225,0.019321
10:34:31,30-Sep-21,0.1465,0.14,0.02146225,0.0196
10:34:31,30-Sep-21,0.1465,0.14,0.02146225,0.0196
10:34:31,30-Sep-21,0.1465,0.141,0.02146225,0.019881
10:34:31,30-Sep-21,0.1465,0.141,0.02146225,0.019881
10:34:31,30-Sep-21,0.1465,0.141,0.02146225,0.019881
10:34:31,30-Sep-21,0.1465,0.142,0.02146225,0.020164
10:34:31,30-Sep-21,0.1465,0.142,0.02146225,0.020164
10:34:31,30-Sep-21,0.1465,0.142,0.02146225,0.020164
10:34:31,30-Sep-21,0.1465,0.142,0.02146225,0.020164
10:34:31,30-Sep-21,0.1465,0.142,0.02146225,0.020164
10:34:31,30-Sep-21,0.1465,0.143,0.02146225,0.020449
10:34:31,30-Sep-21,0.1465,0.143,0.02146225,0.020449
10:34:31,30-Sep-21,0.1415,0.143,0.02002225,0.020449
10:34:31,30-Sep-21,0.1415,0.142,0.02002225,0.020164
10:34:31,30-Sep-21,0.1415,0.142,0.02002225,0.020164
10:34:31,30-Sep-21,0.137,0.142,0.018769,0.020164
10:34:31,30-Sep-21,0.137,0.142,0.018769,0.020164
10:34:31,30-Sep-21,0.137,0.142,0.018769,0.020164
10:34:31,30-Sep-21,0.137,0.142,0.018769,0.020164
10:34:31,30-Sep-21,0.137,0.141,0.018769,0.019881
10:34:31,30-Sep-21,0.137,0.141,0.018769,0.019881
10:34:31,30-Sep-21,0.137,0.141,0.018769,0.019881
10:34:31,30-Sep-21,0.137,0.14,0.018769,0.0196
10:34:31,30-Sep-21,0.137,0.14,0.018769,0.0196
10:34:31,30-Sep-21,0.137,0.139,0.018769,0.019321
10:34:31,30-Sep-21,0.137,0.139,0.018769,0.019321
10:34:31,30-Sep-21,0.137,0.139,0.018769,0.019321
10:34:31,30-Sep-21,0.137,0.138,0.018769,0.019044
10:34:31,30-Sep-21,0.1415,0.138,0.02002225,0.019044
10:34:31,30-Sep-21,0.1415,0.137,0.02002225,0.018769
10:34:31,30-Sep-21,0.1415,0.137,0.02002225,0.018769
10:34:31,30-Sep-21,0.137,0.136,0.018769,0.018496
10:34:31,30-Sep-21,0.137,0.136,0.018769,0.018496
10:34:31,30-Sep-21,0.137,0.136,0.018769,0.018496
10:34:31,30-Sep-21,0.137,0.135,0.018769,0.018225
10:34:31,30-Sep-21,0.137,0.135,0.018769,0.018225
10:34:31,30-Sep-21,0.137,0.134,0.018769,0.017956
10:34:31,30-Sep-21,0.137,0.134,0.018769,0.017956
10:34:31,30-Sep-21,0.132,0.133,0.017424,0.017689
10:34:31,30-Sep-21,0.132,0.133,0.017424,0.017689
10:34:31,30-Sep-21,0.132,0.133,0.017424,0.017689
10:34:31,30-Sep-21,0.132,0.132,0.017424,0.017424
10:34:31,30-Sep-21,0.132,0.132,0.017424,0.017424
10:34:31,30-Sep-21,0.127,0.131,0.016129,0.017161
10:34:31,30-Sep-21,0.127,0.131,0.016129,0.017161
10:34:31,30-Sep-21,0.127,0.131,0.016129,0.017161
10:34:31,30-Sep-21,0.127,0.13,0.016129,0.0169
10:34:31,30-Sep-21,0.127,0.13,0.016129,0.0169
10:34:31,30-Sep-21,0.127,0.13,0.016129,0.0169
10:34:31,30-Sep-21,0.127,0.13,0.016129,0.0169
10:34:31,30-Sep-21,0.127,0.129,0.016129,0.016641
10:34:31,30-Sep-21,0.127,0.129,0.016129,0.016641
10:34:31,30-Sep-21,0.127,0.129,0.016129,0.016641
10:34:31,30-Sep-21,0.127,0.129,0.016129,0.016641
10:34:31,30-Sep-21,0.127,0.128,0.016129,0.016384
10:34:31,30-Sep-21,0.132,0.128,0.017424,0.016384
10:34:31,30-Sep-21,0.132,0.128,0.017424,0.016384
10:34:31,30-Sep-21,0.132,0.128,0.017424,0.016384
10:34:31,30-Sep-21,0.132,0.128,0.017424,0.016384
10:34:31,30-Sep-21,0.132,0.127,0.017424,0.016129
10:34:31,30-Sep-21,0.132,0.127,0.017424,0.016129
10:34:31,30-Sep-21,0.127,0.127,0.016129,0.016129
10:34:31,30-Sep-21,0.127,0.127,0.016129,0.016129
10:34:31,30-Sep-21,0.127,0.127,0.016129,0.016129
10:34:31,30-Sep-21,0.127,0.127,0.016129,0.016129
10:34:31,30-Sep-21,0.127,0.127,0.016129,0.016129
10:34:31,30-Sep-21,0.127,0.127,0.016129,0.016129
10:34:31,30-Sep-21,0.127,0.126,0.016129,0.015876
10:34:31,30-Sep-21,0.127,0.126,0.016129,0.015876
10:34:31,30-Sep-21,0.127,0.126,0.016129,0.015876
10:34:32,30-Sep-21,0.127,0.126,0.016129,0.015876
10:34:32,30-Sep-21,0.127,0.126,0.016129,0.015876
10:34:32,30-Sep-21,0.127,0.126,0.016129,0.015876
10:34:32,30-Sep-21,0.127,0.126,0.016129,0.015876
10:34:32,30-Sep-21,0.122,0.126,0.014884,0.015876
10:34:32,30-Sep-21,0.122,0.126,0.014884,0.015876
10:34:32,30-Sep-21,0.122,0.126,0.014884,0.015876
10:34:32,30-Sep-21,0.122,0.125,0.014884,0.015625
10:34:32,30-Sep-21,0.122,0.125,0.014884,0.015625
10:34:32,30-Sep-21,0.122,0.125,0.014884,0.015625
10:34:32,30-Sep-21,0.122,0.125,0.014884,0.015625
10:34:32,30-Sep-21,0.122,0.125,0.014884,0.015625
10:34:32,30-Sep-21,0.127,0.125,0.016129,0.015625
10:34:32,30-Sep-21,0.127,0.125,0.016129,0.015625
10:34:32,30-Sep-21,0.127,0.125,0.016129,0.015625
10:34:32,30-Sep-21,0.127,0.125,0.016129,0.015625
10:34:32,30-Sep-21,0.127,0.125,0.016129,0.015625
10:34:32,30-Sep-21,0.127,0.125,0.016129,0.015625
10:34:32,30-Sep-21,0.127,0.124,0.016129,0.015376
10:34:32,30-Sep-21,0.127,0.124,0.016129,0.015376
10:34:32,30-Sep-21,0.127,0.124,0.016129,0.015376
10:34:32,30-Sep-21,0.127,0.124,0.016129,0.015376
10:34:32,30-Sep-21,0.127,0.124,0.016129,0.015376
10:34:32,30-Sep-21,0.122,0.124,0.014884,0.015376
10:34:32,30-Sep-21,0.122,0.124,0.014884,0.015376
10:34:32,30-Sep-21,0.122,0.123,0.014884,0.015129
10:34:32,30-Sep-21,0.122,0.123,0.014884,0.015129
10:34:32,30-Sep-21,0.122,0.123,0.014884,0.015129
10:34:32,30-Sep-21,0.122,0.123,0.014884,0.015129
10:34:32,30-Sep-21,0.122,0.123,0.014884,0.015129
10:34:32,30-Sep-21,0.122,0.123,0.014884,0.015129
10:34:32,30-Sep-21,0.122,0.122,0.014884,0.014884
10:34:32,30-Sep-21,0.122,0.122,0.014884,0.014884
10:34:32,30-Sep-21,0.122,0.122,0.014884,0.014884
10:34:32,30-Sep-21,0.122,0.122,0.014884,0.014884
10:34:32,30-Sep-21,0.122,0.122,0.014884,0.014884
10:34:32,30-Sep-21,0.122,0.122,0.014884,0.014884
10:34:32,30-Sep-21,0.122,0.121,0.014884,0.014641
10:34:32,30-Sep-21,0.122,0.121,0.014884,0.014641
10:34:32,30-Sep-21,0.122,0.121,0.014884,0.014641
10:34:32,30-Sep-21,0.122,0.121,0.014884,0.014641
10:34:32,30-Sep-21,0.1175,0.121,0.01380625,0.014641
10:34:32,30-Sep-21,0.1175,0.12,0.01380625,0.0144
10:34:32,30-Sep-21,0.1175,0.12,0.01380625,0.0144
10:34:32,30-Sep-21,0.1175,0.12,0.01380625,0.0144
10:34:32,30-Sep-21,0.1175,0.12,0.01380625,0.0144
10:34:32,30-Sep-21,0.1175,0.12,0.01380625,0.0144
10:34:32,30-Sep-21,0.1175,0.119,0.01380625,0.014161
10:34:32,30-Sep-21,0.1175,0.119,0.01380625,0.014161
10:34:32,30-Sep-21,0.1175,0.119,0.01380625,0.014161
10:34:32,30-Sep-21,0.1175,0.119,0.01380625,0.014161
10:34:32,30-Sep-21,0.1175,0.118,0.01380625,0.013924
10:34:32,30-Sep-21,0.1175,0.118,0.01380625,0.013924
10:34:32,30-Sep-21,0.1175,0.118,0.01380625,0.013924
10:34:32,30-Sep-21,0.1175,0.118,0.01380625,0.013924
10:34:32,30-Sep-21,0.1175,0.118,0.01380625,0.013924
10:34:32,30-Sep-21,0.1175,0.117,0.01380625,0.013689
10:34:32,30-Sep-21,0.1175,0.117,0.01380625,0.013689
10:34:32,30-Sep-21,0.1175,0.117,0.01380625,0.013689
10:34:32,30-Sep-21,0.122,0.117,0.014884,0.013689
10:34:32,30-Sep-21,0.122,0.117,0.014884,0.013689
10:34:32,30-Sep-21,0.122,0.116,0.014884,0.013456
10:34:32,30-Sep-21,0.122,0.116,0.014884,0.013456
10:34:32,30-Sep-21,0.122,0.116,0.014884,0.013456
10:34:32,30-Sep-21,0.122,0.116,0.014884,0.013456
10:34:32,30-Sep-21,0.1175,0.116,0.01380625,0.013456
10:34:32,30-Sep-21,0.1175,0.116,0.01380625,0.013456
10:34:32,30-Sep-21,0.1175,0.116,0.01380625,0.013456
10:34:32,30-Sep-21,0.1175,0.116,0.01380625,0.013456
10:34:32,30-Sep-21,0.1175,0.116,0.01380625,0.013456
10:34:32,30-Sep-21,0.1175,0.116,0.01380625,0.013456
10:34:32,30-Sep-21,0.1125,0.116,0.01265625,0.013456
10:34:32,30-Sep-21,0.1125,0.116,0.01265625,0.013456
10:34:32,30-Sep-21,0.1125,0.116,0.01265625,0.013456
10:34:32,30-Sep-21,0.1175,0.116,0.01380625,0.013456
10:34:32,30-Sep-21,0.1175,0.117,0.01380625,0.013689
10:34:32,30-Sep-21,0.1175,0.117,0.01380625,0.013689
10:34:32,30-Sep-21,0.1175,0.118,0.01380625,0.013924
10:34:32,30-Sep-21,0.122,0.118,0.014884,0.013924
10:34:32,30-Sep-21,0.122,0.119,0.014884,0.014161
10:34:32,30-Sep-21,0.122,0.12,0.014884,0.0144
10:34:32,30-Sep-21,0.122,0.121,0.014884,0.014641
10:34:32,30-Sep-21,0.122,0.122,0.014884,0.014884
10:34:32,30-Sep-21,0.122,0.123,0.014884,0.015129
10:34:32,30-Sep-21,0.122,0.125,0.014884,0.015625
10:34:32,30-Sep-21,0.122,0.126,0.014884,0.015876
10:34:32,30-Sep-21,0.122,0.128,0.014884,0.016384
10:34:32,30-Sep-21,0.127,0.129,0.016129,0.016641
10:34:32,30-Sep-21,0.132,0.131,0.017424,0.017161
10:34:32,30-Sep-21,0.137,0.133,0.018769,0.017689
10:34:32,30-Sep-21,0.132,0.136,0.017424,0.018496
10:34:32,30-Sep-21,0.132,0.138,0.017424,0.019044
10:34:32,30-Sep-21,0.132,0.14,0.017424,0.0196
10:34:32,30-Sep-21,0.137,0.143,0.018769,0.020449
10:34:32,30-Sep-21,0.1415,0.146,0.02002225,0.021316
10:34:32,30-Sep-21,0.1465,0.149,0.02146225,0.022201
10:34:32,30-Sep-21,0.1515,0.152,0.02295225,0.023104
10:34:32,30-Sep-21,0.1515,0.155,0.02295225,0.024025
10:34:32,30-Sep-21,0.1515,0.159,0.02295225,0.025281
10:34:32,30-Sep-21,0.1515,0.163,0.02295225,0.026569
10:34:32,30-Sep-21,0.1565,0.166,0.02449225,0.027556
10:34:32,30-Sep-21,0.1615,0.17,0.02608225,0.0289
10:34:33,30-Sep-21,0.1615,0.174,0.02608225,0.030276
10:34:33,30-Sep-21,0.166,0.179,0.027556,0.032041
10:34:33,30-Sep-21,0.181,0.183,0.032761,0.033489
10:34:33,30-Sep-21,0.181,0.188,0.032761,0.035344
10:34:33,30-Sep-21,0.1855,0.192,0.03441025,0.036864
10:34:33,30-Sep-21,0.1855,0.197,0.03441025,0.038809
10:34:33,30-Sep-21,0.1955,0.202,0.03822025,0.040804
10:34:33,30-Sep-21,0.2055,0.207,0.04223025,0.042849
10:34:33,30-Sep-21,0.2055,0.212,0.04223025,0.044944
10:34:33,30-Sep-21,0.2295,0.218,0.05267025,0.047524
10:34:33,30-Sep-21,0.2295,0.223,0.05267025,0.049729
10:34:33,30-Sep-21,0.2445,0.229,0.05978025,0.052441
10:34:33,30-Sep-21,0.2445,0.235,0.05978025,0.055225
10:34:33,30-Sep-21,0.264,0.241,0.069696,0.058081
10:34:33,30-Sep-21,0.2785,0.247,0.07756225,0.061009
10:34:33,30-Sep-21,0.298,0.253,0.088804,0.064009
10:34:33,30-Sep-21,0.298,0.26,0.088804,0.0676
10:34:33,30-Sep-21,0.308,0.266,0.094864,0.070756
10:34:33,30-Sep-21,0.308,0.273,0.094864,0.074529
10:34:33,30-Sep-21,0.3175,0.281,0.10080625,0.078961
10:34:33,30-Sep-21,0.3275,0.288,0.10725625,0.082944
10:34:33,30-Sep-21,0.3275,0.296,0.10725625,0.087616
10:34:33,30-Sep-21,0.3325,0.304,0.11055625,0.092416
10:34:33,30-Sep-21,0.3325,0.312,0.11055625,0.097344
10:34:33,30-Sep-21,0.3325,0.321,0.11055625,0.103041
10:34:33,30-Sep-21,0.3325,0.33,0.11055625,0.1089
10:34:33,30-Sep-21,0.3325,0.339,0.11055625,0.114921
10:34:33,30-Sep-21,0.3225,0.349,0.10400625,0.121801
10:34:33,30-Sep-21,0.3225,0.36,0.10400625,0.1296
10:34:33,30-Sep-21,0.337,0.37,0.113569,0.1369
10:34:33,30-Sep-21,0.337,0.382,0.113569,0.145924
10:34:33,30-Sep-21,0.3615,0.394,0.13068225,0.155236
10:34:33,30-Sep-21,0.3615,0.406,0.13068225,0.164836
10:34:33,30-Sep-21,0.396,0.419,0.156816,0.175561
10:34:33,30-Sep-21,0.396,0.432,0.156816,0.186624
10:34:33,30-Sep-21,0.396,0.447,0.156816,0.199809
10:34:33,30-Sep-21,0.435,0.461,0.189225,0.212521
10:34:33,30-Sep-21,0.435,0.476,0.189225,0.226576
10:34:33,30-Sep-21,0.435,0.492,0.189225,0.242064
10:34:33,30-Sep-21,0.484,0.508,0.234256,0.258064
10:34:33,30-Sep-21,0.484,0.525,0.234256,0.275625
10:34:33,30-Sep-21,0.5325,0.542,0.28355625,0.293764
10:34:33,30-Sep-21,0.572,0.56,0.327184,0.3136
10:34:33,30-Sep-21,0.572,0.578,0.327184,0.334084
10:34:33,30-Sep-21,0.616,0.597,0.379456,0.356409
10:34:33,30-Sep-21,0.616,0.616,0.379456,0.379456
10:34:33,30-Sep-21,0.616,0.635,0.379456,0.403225
10:34:33,30-Sep-21,0.66,0.655,0.4356,0.429025
10:34:33,30-Sep-21,0.699,0.675,0.488601,0.455625
10:34:33,30-Sep-21,0.699,0.696,0.488601,0.484416
10:34:33,30-Sep-21,0.748,0.716,0.559504,0.512656
10:34:33,30-Sep-21,0.787,0.738,0.619369,0.544644
10:34:33,30-Sep-21,0.787,0.759,0.619369,0.576081
10:34:33,30-Sep-21,0.8455,0.78,0.71487025,0.6084
10:34:33,30-Sep-21,0.8845,0.802,0.78234025,0.643204
10:34:33,30-Sep-21,0.8845,0.824,0.78234025,0.678976
10:34:33,30-Sep-21,0.909,0.846,0.826281,0.715716
10:34:33,30-Sep-21,0.924,0.868,0.853776,0.753424
10:34:33,30-Sep-21,0.9335,0.89,0.87142225,0.7921
10:34:33,30-Sep-21,0.9335,0.912,0.87142225,0.831744
10:34:33,30-Sep-21,0.9335,0.935,0.87142225,0.874225
10:34:33,30-Sep-21,0.948,0.957,0.898704,0.915849
10:34:33,30-Sep-21,0.8945,0.98,0.80013025,0.9604
10:34:33,30-Sep-21,0.9285,1.002,0.86211225,1.004004
10:34:33,30-Sep-21,0.9285,1.025,0.86211225,1.050625
10:34:33,30-Sep-21,0.9875,1.047,0.97515625,1.096209
10:34:33,30-Sep-21,0.9875,1.07,0.97515625,1.1449
10:34:33,30-Sep-21,0.9875,1.092,0.97515625,1.192464
10:34:33,30-Sep-21,1.036,1.114,1.073296,1.240996
10:34:33,30-Sep-21,1.0995,1.136,1.20890025,1.290496
10:34:33,30-Sep-21,1.0995,1.158,1.20890025,1.340964
10:34:33,30-Sep-21,1.1435,1.18,1.30759225,1.3924
10:34:33,30-Sep-21,1.1925,1.202,1.42205625,1.444804
10:34:33,30-Sep-21,1.1925,1.223,1.42205625,1.495729
10:34:33,30-Sep-21,1.266,1.244,1.602756,1.547536
10:34:33,30-Sep-21,1.266,1.265,1.602756,1.600225
10:34:33,30-Sep-21,1.315,1.285,1.729225,1.651225
10:34:33,30-Sep-21,1.315,1.305,1.729225,1.703025
10:34:33,30-Sep-21,1.3785,1.324,1.90026225,1.752976
10:34:33,30-Sep-21,1.4175,1.343,2.00930625,1.803649
10:34:33,30-Sep-21,1.4175,1.362,2.00930625,1.855044
10:34:33,30-Sep-21,1.4175,1.38,2.00930625,1.9044
10:34:33,30-Sep-21,1.4175,1.397,2.00930625,1.951609
10:34:33,30-Sep-21,1.476,1.415,2.178576,2.002225
10:34:33,30-Sep-21,1.476,1.431,2.178576,2.047761
10:34:33,30-Sep-21,1.52,1.448,2.3104,2.096704
10:34:33,30-Sep-21,1.52,1.463,2.3104,2.140369
10:34:33,30-Sep-21,1.5835,1.479,2.50747225,2.187441
10:34:33,30-Sep-21,1.618,1.494,2.617924,2.232036
10:34:33,30-Sep-21,1.652,1.509,2.729104,2.277081
10:34:33,30-Sep-21,1.652,1.523,2.729104,2.319529
10:34:33,30-Sep-21,1.613,1.538,2.601769,2.365444
10:34:33,30-Sep-21,1.613,1.552,2.601769,2.408704
10:34:33,30-Sep-21,1.613,1.566,2.601769,2.452356
10:34:34,30-Sep-21,1.603,1.58,2.569609,2.4964
10:34:34,30-Sep-21,1.603,1.594,2.569609,2.540836
10:34:34,30-Sep-21,1.608,1.608,2.585664,2.585664
10:34:34,30-Sep-21,1.6275,1.623,2.64875625,2.634129
10:34:34,30-Sep-21,1.6275,1.637,2.64875625,2.679769
10:34:34,30-Sep-21,1.525,1.652,2.325625,2.729104
10:34:34,30-Sep-21,1.525,1.668,2.325625,2.782224
10:34:34,30-Sep-21,1.5545,1.683,2.41647025,2.832489
10:34:34,30-Sep-21,1.5545,1.699,2.41647025,2.886601
10:34:34,30-Sep-21,1.5545,1.716,2.41647025,2.944656
10:34:34,30-Sep-21,1.6325,1.733,2.66505625,3.003289
10:34:34,30-Sep-21,1.6325,1.751,2.66505625,3.066001
10:34:34,30-Sep-21,1.691,1.769,2.859481,3.129361
10:34:34,30-Sep-21,1.691,1.787,2.859481,3.193369
10:34:34,30-Sep-21,1.7545,1.807,3.07827025,3.265249
10:34:34,30-Sep-21,1.7545,1.826,3.07827025,3.334276
10:34:34,30-Sep-21,1.8475,1.847,3.41325625,3.411409
10:34:34,30-Sep-21,1.8475,1.867,3.41325625,3.485689
10:34:34,30-Sep-21,1.8475,1.888,3.41325625,3.564544
10:34:34,30-Sep-21,1.8475,1.91,3.41325625,3.6481
10:34:34,30-Sep-21,1.8475,1.932,3.41325625,3.732624
10:34:34,30-Sep-21,1.916,1.954,3.671056,3.818116
10:34:34,30-Sep-21,1.916,1.976,3.671056,3.904576
10:34:34,30-Sep-21,2.0135,1.998,4.05418225,3.992004
10:34:34,30-Sep-21,2.0135,2.021,4.05418225,4.084441
10:34:34,30-Sep-21,2.077,2.043,4.313929,4.173849
10:34:34,30-Sep-21,2.077,2.065,4.313929,4.264225
10:34:34,30-Sep-21,2.077,2.088,4.313929,4.359744
10:34:34,30-Sep-21,2.18,2.11,4.7524,4.4521
10:34:34,30-Sep-21,2.18,2.132,4.7524,4.545424
10:34:34,30-Sep-21,2.18,2.153,4.7524,4.635409
10:34:34,30-Sep-21,2.18,2.174,4.7524,4.726276
10:34:34,30-Sep-21,2.2435,2.195,5.03329225,4.818025
10:34:34,30-Sep-21,2.346,2.216,5.503716,4.910656
10:34:34,30-Sep-21,2.346,2.236,5.503716,4.999696
10:34:34,30-Sep-21,2.4045,2.255,5.78162025,5.085025
10:34:34,30-Sep-21,2.4635,2.275,6.06883225,5.175625
10:34:34,30-Sep-21,2.4635,2.294,6.06883225,5.262436
10:34:34,30-Sep-21,2.4635,2.312,6.06883225,5.345344
10:34:34,30-Sep-21,2.566,2.33,6.584356,5.4289
10:34:34,30-Sep-21,2.566,2.348,6.584356,5.513104
10:34:34,30-Sep-21,2.468,2.366,6.091024,5.597956
10:34:34,30-Sep-21,2.468,2.383,6.091024,5.678689
10:34:34,30-Sep-21,2.444,2.4,5.973136,5.76
10:34:34,30-Sep-21,2.444,2.417,5.973136,5.841889
10:34:34,30-Sep-21,2.444,2.435,5.973136,5.929225
10:34:34,30-Sep-21,2.4635,2.452,6.06883225,6.012304
10:34:34,30-Sep-21,2.4635,2.47,6.06883225,6.1009
10:34:34,30-Sep-21,2.473,2.487,6.115729,6.185169
10:34:34,30-Sep-21,2.3315,2.505,5.43589225,6.275025
10:34:34,30-Sep-21,2.3315,2.524,5.43589225,6.370576
10:34:34,30-Sep-21,2.3265,2.543,5.41260225,6.466849
10:34:34,30-Sep-21,2.3265,2.562,5.41260225,6.563844
10:34:34,30-Sep-21,2.356,2.583,5.550736,6.671889
10:34:34,30-Sep-21,2.356,2.603,5.550736,6.775609
10:34:34,30-Sep-21,2.4535,2.624,6.01966225,6.885376
10:34:34,30-Sep-21,2.4535,2.646,6.01966225,7.001316
10:34:34,30-Sep-21,2.512,2.669,6.310144,7.123561
10:34:34,30-Sep-21,2.61,2.692,6.8121,7.246864
10:34:34,30-Sep-21,2.61,2.716,6.8121,7.376656
10:34:34,30-Sep-21,2.61,2.74,6.8121,7.5076
10:34:34,30-Sep-21,2.7715,2.765,7.68121225,7.645225
10:34:34,30-Sep-21,2.7715,2.79,7.68121225,7.7841
10:34:34,30-Sep-21,2.7715,2.816,7.68121225,7.929856
10:34:34,30-Sep-21,2.835,2.842,8.037225,8.076964
10:34:34,30-Sep-21,2.952,2.868,8.714304,8.225424
10:34:34,30-Sep-21,3.0305,2.895,9.18393025,8.381025
10:34:34,30-Sep-21,3.0305,2.922,9.18393025,8.538084
10:34:34,30-Sep-21,3.1085,2.949,9.66277225,8.696601
10:34:34,30-Sep-21,3.1085,2.976,9.66277225,8.856576
10:34:34,30-Sep-21,3.226,3.004,10.407076,9.024016
10:34:34,30-Sep-21,3.294,3.031,10.850436,9.186961
10:34:34,30-Sep-21,3.3675,3.059,11.34005625,9.357481
10:34:34,30-Sep-21,3.397,3.086,11.539609,9.523396
10:34:34,30-Sep-21,3.2455,3.114,10.53327025,9.696996
10:34:34,30-Sep-21,3.2455,3.141,10.53327025,9.865881
10:34:34,30-Sep-21,3.2455,3.169,10.53327025,10.042561
10:34:34,30-Sep-21,3.2405,3.197,10.50084025,10.220809
10:34:34,30-Sep-21,3.2405,3.225,10.50084025,10.400625
10:34:34,30-Sep-21,3.2895,3.253,10.82081025,10.582009
10:34:34,30-Sep-21,3.309,3.281,10.949481,10.764961
10:34:34,30-Sep-21,3.309,3.309,10.949481,10.949481
10:34:34,30-Sep-21,3.309,3.338,10.949481,11.142244
10:34:34,30-Sep-21,3.309,3.367,10.949481,11.336689
10:34:34,30-Sep-21,3.299,3.396,10.883401,11.532816
10:34:34,30-Sep-21,3.299,3.425,10.883401,11.730625
10:34:34,30-Sep-21,3.138,3.455,9.847044,11.937025
10:34:34,30-Sep-21,3.138,3.485,9.847044,12.145225
10:34:34,30-Sep-21,3.138,3.515,9.847044,12.355225
10:34:34,30-Sep-21,3.2455,3.545,10.53327025,12.567025
10:34:34,30-Sep-21,3.314,3.575,10.982596,12.780625
10:34:34,30-Sep-21,3.314,3.605,10.982596,12.996025
10:34:34,30-Sep-21,3.314,3.635,10.982596,13.213225
10:34:34,30-Sep-21,3.4455,3.665,11.87147025,13.432225
10:34:34,30-Sep-21,3.524,3.695,12.418576,13.653025
10:34:34,30-Sep-21,3.6705,3.725,13.47257025,13.875625
10:34:34,30-Sep-21,3.7535,3.754,14.08876225,14.092516
10:34:34,30-Sep-21,3.837,3.782,14.722569,14.303524
10:34:35,30-Sep-21,3.9885,3.81,15.90813225,14.5161
10:34:35,30-Sep-21,3.9885,3.837,15.90813225,14.722569
10:34:35,30-Sep-21,4.0715,3.864,16.57711225,14.930496
10:34:35,30-Sep-21,4.0715,3.889,16.57711225,15.124321
10:34:35,30-Sep-21,4.208,3.913,17.707264,15.311569
10:34:35,30-Sep-21,4.208,3.937,17.707264,15.499969
10:34:35,30-Sep-21,4.2815,3.959,18.33124225,15.673681
10:34:35,30-Sep-21,4.2815,3.98,18.33124225,15.8404
10:34:35,30-Sep-21,4.2815,4,18.33124225,16
10:34:35,30-Sep-21,4.3305,4.02,18.75323025,16.1604
10:34:35,30-Sep-21,4.3305,4.038,18.75323025,16.305444
10:34:35,30-Sep-21,4.3355,4.055,18.79656025,16.443025
10:34:35,30-Sep-21,4.3355,4.071,18.79656025,16.573041
10:34:35,30-Sep-21,4.13,4.087,17.0569,16.703569
10:34:35,30-Sep-21,4.13,4.101,17.0569,16.818201
10:34:35,30-Sep-21,4.13,4.116,17.0569,16.941456
10:34:35,30-Sep-21,4.1935,4.13,17.58544225,17.0569
10:34:35,30-Sep-21,4.1935,4.143,17.58544225,17.164449
10:34:35,30-Sep-21,4.1935,4.157,17.58544225,17.280649
10:34:35,30-Sep-21,4.1985,4.17,17.62740225,17.3889
10:34:35,30-Sep-21,4.179,4.184,17.464041,17.505856
10:34:35,30-Sep-21,4.179,4.198,17.464041,17.623204
10:34:35,30-Sep-21,3.9835,4.213,15.86827225,17.749369
10:34:35,30-Sep-21,3.9835,4.228,15.86827225,17.875984
10:34:35,30-Sep-21,3.964,4.243,15.713296,18.003049
10:34:35,30-Sep-21,3.964,4.26,15.713296,18.1476
10:34:35,30-Sep-21,3.964,4.277,15.713296,18.292729
10:34:35,30-Sep-21,4.052,4.295,16.418704,18.447025
10:34:35,30-Sep-21,4.052,4.315,16.418704,18.619225
10:34:35,30-Sep-21,4.052,4.335,16.418704,18.792225
10:34:35,30-Sep-21,4.13,4.356,17.0569,18.974736
10:34:35,30-Sep-21,4.13,4.378,17.0569,19.166884
10:34:35,30-Sep-21,4.2765,4.401,18.28845225,19.368801
10:34:35,30-Sep-21,4.2765,4.424,18.28845225,19.571776
10:34:35,30-Sep-21,4.3595,4.449,19.00524025,19.793601
10:34:35,30-Sep-21,4.3595,4.474,19.00524025,20.016676
10:34:35,30-Sep-21,4.3595,4.499,19.00524025,20.241001
10:34:35,30-Sep-21,4.3595,4.525,19.00524025,20.475625
10:34:35,30-Sep-21,4.443,4.552,19.740249,20.720704
10:34:35,30-Sep-21,4.599,4.578,21.150801,20.958084
10:34:35,30-Sep-21,4.599,4.604,21.150801,21.196816
10:34:35,30-Sep-21,4.687,4.631,21.967969,21.446161
10:34:35,30-Sep-21,4.8585,4.656,23.60502225,21.678336
10:34:35,30-Sep-21,4.8585,4.682,23.60502225,21.921124
10:34:35,30-Sep-21,4.9365,4.707,24.36903225,22.155849
10:34:35,30-Sep-21,4.9365,4.731,24.36903225,22.382361
10:34:35,30-Sep-21,5,4.754,25,22.600516
10:34:35,30-Sep-21,5,4.776,25,22.810176
10:34:35,30-Sep-21,5,4.797,25,23.011209
10:34:35,30-Sep-21,5,4.817,25,23.203489
10:34:35,30-Sep-21,5,4.836,25,23.386896
10:34:35,30-Sep-21,5,4.854,25,23.561316
10:34:35,30-Sep-21,5,4.87,25,23.7169
10:34:35,30-Sep-21,5,4.885,25,23.863225
10:34:35,30-Sep-21,5,4.899,25,24.000201
10:34:35,30-Sep-21,5,4.911,25,24.117921
10:34:35,30-Sep-21,5,4.922,25,24.226084
10:34:35,30-Sep-21,5,4.932,25,24.324624
10:34:35,30-Sep-21,4.9265,4.94,24.27040225,24.4036
10:34:35,30-Sep-21,4.9265,4.948,24.27040225,24.482704
10:34:35,30-Sep-21,4.9265,4.954,24.27040225,24.542116
10:34:35,30-Sep-21,4.995,4.96,24.950025,24.6016
10:34:35,30-Sep-21,4.995,4.964,24.950025,24.641296
10:34:35,30-Sep-21,5,4.968,25,24.681024
10:34:35,30-Sep-21,5,4.971,25,24.710841
10:34:35,30-Sep-21,4.995,4.973,24.950025,24.730729
10:34:35,30-Sep-21,4.995,4.975,24.950025,24.750625
10:34:35,30-Sep-21,4.785,4.976,22.896225,24.760576
10:34:35,30-Sep-21,4.785,4.977,22.896225,24.770529
10:34:35,30-Sep-21,4.785,4.977,22.896225,24.770529
10:34:35,30-Sep-21,4.7505,4.977,22.56725025,24.770529
10:34:35,30-Sep-21,4.7505,4.977,22.56725025,24.770529
10:34:35,30-Sep-21,4.8145,4.977,23.17941025,24.770529
10:34:35,30-Sep-21,4.8145,4.977,23.17941025,24.770529
10:34:35,30-Sep-21,4.902,4.977,24.029604,24.770529
10:34:35,30-Sep-21,5,4.977,25,24.770529
10:34:35,30-Sep-21,5,4.977,25,24.770529
10:34:35,30-Sep-21,5,4.976,25,24.760576
10:34:35,30-Sep-21,5,4.976,25,24.760576
10:34:35,30-Sep-21,5,4.976,25,24.760576
10:34:35,30-Sep-21,5,4.977,25,24.770529
10:34:35,30-Sep-21,5,4.977,25,24.770529
10:34:35,30-Sep-21,5,4.977,25,24.770529
10:34:35,30-Sep-21,5,4.978,25,24.780484
10:34:35,30-Sep-21,5,4.978,25,24.780484
10:34:35,30-Sep-21,5,4.979,25,24.790441
10:34:35,30-Sep-21,5,4.98,25,24.8004
10:34:35,30-Sep-21,5,4.981,25,24.810361
10:34:35,30-Sep-21,5,4.981,25,24.810361
10:34:35,30-Sep-21,5,4.982,25,24.820324
10:34:35,30-Sep-21,5,4.983,25,24.830289
10:34:35,30-Sep-21,5,4.984,25,24.840256
10:34:35,30-Sep-21,5,4.985,25,24.850225
10:34:35,30-Sep-21,5,4.987,25,24.870169
10:34:35,30-Sep-21,5,4.988,25,24.880144
10:34:35,30-Sep-21,5,4.989,25,24.890121
10:34:35,30-Sep-21,5,4.99,25,24.9001
10:34:35,30-Sep-21,5,4.991,25,24.910081
10:34:35,30-Sep-21,5,4.992,25,24.920064
10:34:35,30-Sep-21,5,4.993,25,24.930049
10:34:35,30-Sep-21,5,4.994,25,24.940036
10:34:35,30-Sep-21,5,4.995,25,24.950025
10:34:35,30-Sep-21,5,4.995,25,24.950025
10:34:35,30-Sep-21,5,4.996,25,24.960016
10:34:35,30-Sep-21,5,4.997,25,24.970009
10:34:35,30-Sep-21,5,4.998,25,24.980004
10:34:35,30-Sep-21,5,4.998,25,24.980004
10:34:36,30-Sep-21,5,4.999,25,24.990001
10:34:36,30-Sep-21,5,4.999,25,24.990001
10:34:36,30-Sep-21,5,5,25,25
10:34:36,30-Sep-21,5,5,25,25
10:34:36,30-Sep-21,5,5.001,25,25.010001
10:34:36,30-Sep-21,5,5.001,25,25.010001
10:34:36,30-Sep-21,5,5.001,25,25.010001
10:34:36,30-Sep-21,5,5.002,25,25.020004
10:34:36,30-Sep-21,5,5.002,25,25.020004
10:34:36,30-Sep-21,5,5.002,25,25.020004
10:34:36,30-Sep-21,5,5.002,25,25.020004
10:34:36,30-Sep-21,5,5.002,25,25.020004
10:34:36,30-Sep-21,5,5.002,25,25.020004
10:34:36,30-Sep-21,5,5.002,25,25.020004
10:34:36,30-Sep-21,5,5.002,25,25.020004
10:34:36,30-Sep-21,5,5.002,25,25.020004
10:34:36,30-Sep-21,5,5.002,25,25.020004
10:34:36,30-Sep-21,5,5.002,25,25.020004
10:34:36,30-Sep-21,5,5.002,25,25.020004
10:34:36,30-Sep-21,5,5.002,25,25.020004
10:34:36,30-Sep-21,5,5.002,25,25.020004
10:34:36,30-Sep-21,5,5.001,25,25.010001
10:34:36,30-Sep-21,5,5.001,25,25.010001
10:34:36,30-Sep-21,5,5.001,25,25.010001
10:34:36,30-Sep-21,5,5.001,25,25.010001
10:34:36,30-Sep-21,5,5.001,25,25.010001
10:34:36,30-Sep-21,5,5.001,25,25.010001
10:34:36,30-Sep-21,5,5.001,25,25.010001
10:34:36,30-Sep-21,5,5.001,25,25.010001
10:34:36,30-Sep-21,5,5,25,25
10:34:36,30-Sep-21,5,5,25,25
10:34:36,30-Sep-21,5,5,25,25
10:34:36,30-Sep-21,5,5,25,25
10:34:36,30-Sep-21,5,5,25,25
10:34:36,30-Sep-21,5,5,25,25
10:34:36,30-Sep-21,5,5,25,25
10:34:36,30-Sep-21,5,5,25,25
10:34:36,30-Sep-21,5,5,25,25
10:34:36,30-Sep-21,5,5,25,25
10:34:36,30-Sep-21,5,5,25,25
10:34:36,30-Sep-21,5,5,25,25
10:34:36,30-Sep-21,5,5,25,25
10:34:36,30-Sep-21,5,5,25,25
10:34:36,30-Sep-21,5,5,25,25
10:34:36,30-Sep-21,5,5,25,25
10:34:36,30-Sep-21,5,5,25,25
10:34:36,30-Sep-21,5,5,25,25
10:34:36,30-Sep-21,5,5,25,25
10:34:36,30-Sep-21,5,5,25,25
10:34:36,30-Sep-21,5,5,25,25
10:34:36,30-Sep-21,5,5,25,25
10:34:36,30-Sep-21,5,5,25,25
10:34:36,30-Sep-21,5,5,25,25
10:34:36,30-Sep-21,5,5,25,25
10:34:36,30-Sep-21,5,5,25,25
10:34:36,30-Sep-21,5,5,25,25
10:34:36,30-Sep-21,5,5,25,25
10:34:36,30-Sep-21,5,5,25,25
10:34:36,30-Sep-21,5,5,25,25
10:34:36,30-Sep-21,5,5,25,25
10:34:36,30-Sep-21,5,5,25,25
10:34:36,30-Sep-21,5,5,25,25
10:34:36,30-Sep-21,5,5,25,25
10:34:36,30-Sep-21,5,5,25,25
10:34:36,30-Sep-21,5,5,25,25
10:34:36,30-Sep-21,5,5,25,25
10:34:36,30-Sep-21,5,5,25,25
10:34:36,30-Sep-21,5,5,25,25
10:34:36,30-Sep-21,5,5,25,25
10:34:36,30-Sep-21,5,5,25,25
10:34:36,30-Sep-21,5,5,25,25
10:34:36,30-Sep-21,5,5,25,25
10:34:36,30-Sep-21,5,5,25,25
10:34:36,30-Sep-21,5,5,25,25
10:34:36,30-Sep-21,5,5,25,25
10:34:36,30-Sep-21,5,5,25,25
10:34:36,30-Sep-21,5,5,25,25
10:34:36,30-Sep-21,5,5,25,25
10:34:36,30-Sep-21,5,5,25,25
10:34:36,30-Sep-21,5,5,25,25
10:34:36,30-Sep-21,5,5,25,25
10:34:36,30-Sep-21,5,5,25,25
10:34:36,30-Sep-21,5,5,25,25
10:34:36,30-Sep-21,5,5,25,25
10:34:36,30-Sep-21,5,5,25,25
10:34:36,30-Sep-21,5,5,25,25
10:34:36,30-Sep-21,5,5,25,25
10:34:36,30-Sep-21,5,5,25,25
10:34:36,30-Sep-21,5,5,25,25
10:34:36,30-Sep-21,5,5,25,25
10:34:36,30-Sep-21,5,5,25,25
10:34:36,30-Sep-21,5,5,25,25
10:34:36,30-Sep-21,5,5,25,25
10:34:36,30-Sep-21,5,5,25,25
10:34:36,30-Sep-21,5,5,25,25
10:34:36,30-Sep-21,5,5,25,25
10:34:36,30-Sep-21,5,5,25,25
10:34:36,30-Sep-21,5,5,25,25
10:34:36,30-Sep-21,5,5,25,25
10:34:36,30-Sep-21,5,5,25,25
10:34:36,30-Sep-21,5,5,25,25
10:34:36,30-Sep-21,5,5,25,25
10:34:36,30-Sep-21,5,5,25,25
10:34:36,30-Sep-21,5,5,25,25
10:34:36,30-Sep-21,5,5,25,25
10:34:36,30-Sep-21,5,5,25,25
10:34:36,30-Sep-21,5,5,25,25
10:34:36,30-Sep-21,5,5,25,25
10:34:36,30-Sep-21,5,5,25,25
10:34:36,30-Sep-21,5,5,25,25
10:34:36,30-Sep-21,5,5,25,25
10:34:36,30-Sep-21,5,5,25,25
10:34:36,30-Sep-21,5,5,25,25
10:34:36,30-Sep-21,5,5,25,25
10:34:36,30-Sep-21,5,5,25,25
10:34:36,30-Sep-21,5,5,25,25
10:34:36,30-Sep-21,5,5,25,25
10:34:36,30-Sep-21,5,5,25,25
10:34:36,30-Sep-21,5,5,25,25
10:34:36,30-Sep-21,5,5,25,25
10:34:36,30-Sep-21,5,5,25,25
10:34:36,30-Sep-21,5,5,25,25
10:34:36,30-Sep-21,5,5,25,25
10:34:36,30-Sep-21,5,5,25,25
10:34:36,30-Sep-21,5,5,25,25
10:34:36,30-Sep-21,5,5,25,25
10:34:37,30-Sep-21,5,5,25,25
10:34:37,30-Sep-21,5,5,25,25
10:34:37,30-Sep-21,5,5,25,25
10:34:37,30-Sep-21,5,5,25,25
10:34:37,30-Sep-21,5,5,25,25
10:34:37,30-Sep-21,5,5,25,25
10:34:37,30-Sep-21,5,5,25,25
10:34:37,30-Sep-21,5,5,25,25
10:34:37,30-Sep-21,5,5,25,25
10:34:37,30-Sep-21,5,5,25,25
10:34:37,30-Sep-21,5,5,25,25
10:34:37,30-Sep-21,5,5,25,25
10:34:37,30-Sep-21,5,5,25,25
10:34:37,30-Sep-21,5,5,25,25
10:34:37,30-Sep-21,5,5,25,25
10:34:37,30-Sep-21,5,5,25,25
10:34:37,30-Sep-21,5,5,25,25
10:34:37,30-Sep-21,5,5,25,25
10:34:37,30-Sep-21,5,5,25,25
10:34:37,30-Sep-21,5,5,25,25
10:34:37,30-Sep-21,5,5,25,25
10:34:37,30-Sep-21,5,5,25,25
10:34:37,30-Sep-21,5,5,25,25
10:34:37,30-Sep-21,5,5,25,25
10:34:37,30-Sep-21,5,5,25,25
10:34:37,30-Sep-21,5,5,25,25
10:34:37,30-Sep-21,5,5,25,25
10:34:37,30-Sep-21,5,5,25,25
10:34:37,30-Sep-21,5,5,25,25
10:34:37,30-Sep-21,5,5,25,25
10:34:37,30-Sep-21,5,5,25,25
10:34:37,30-Sep-21,5,5,25,25
10:34:37,30-Sep-21,5,5,25,25
10:34:37,30-Sep-21,5,5,25,25
10:34:37,30-Sep-21,5,5,25,25
10:34:37,30-Sep-21,5,5,25,25
10:34:37,30-Sep-21,5,5,25,25
10:34:37,30-Sep-21,5,5,25,25
10:34:37,30-Sep-21,5,5,25,25
10:34:37,30-Sep-21,5,5,25,25
10:34:37,30-Sep-21,5,5,25,25
10:34:37,30-Sep-21,5,5,25,25
10:34:37,30-Sep-21,5,5,25,25
10:34:37,30-Sep-21,5,5,25,25
10:34:37,30-Sep-21,5,5,25,25
10:34:37,30-Sep-21,5,5,25,25
10:34:37,30-Sep-21,5,5,25,25
10:34:37,30-Sep-21,5,5,25,25
10:34:37,30-Sep-21,5,5,25,25
10:34:37,30-Sep-21,5,5,25,25
10:34:37,30-Sep-21,5,5,25,25
10:34:37,30-Sep-21,5,5,25,25
10:34:37,30-Sep-21,5,5,25,25
10:34:37,30-Sep-21,5,5,25,25
10:34:37,30-Sep-21,5,5,25,25
10:34:37,30-Sep-21,5,5,25,25
10:34:37,30-Sep-21,5,5,25,25
10:34:37,30-Sep-21,5,5,25,25
10:34:37,30-Sep-21,5,5,25,25
10:34:37,30-Sep-21,5,5,25,25
10:34:37,30-Sep-21,5,5,25,25
10:34:37,30-Sep-21,5,5,25,25
10:34:37,30-Sep-21,5,5,25,25
10:34:37,30-Sep-21,5,5,25,25
10:34:37,30-Sep-21,5,5,25,25
10:34:37,30-Sep-21,5,5,25,25
10:34:37,30-Sep-21,5,5,25,25
10:34:37,30-Sep-21,5,5,25,25
10:34:37,30-Sep-21,5,5,25,25
10:34:37,30-Sep-21,5,5,25,25
10:34:37,30-Sep-21,5,5,25,25
10:34:37,30-Sep-21,5,5,25,25
10:34:37,30-Sep-21,5,5,25,25
10:34:37,30-Sep-21,5,5,25,25
10:34:37,30-Sep-21,5,5,25,25
10:34:37,30-Sep-21,5,5,25,25
10:34:37,30-Sep-21,5,5,25,25
10:34:37,30-Sep-21,5,5,25,25
10:34:37,30-Sep-21,5,5,25,25
10:34:37,30-Sep-21,5,5,25,25
10:34:37,30-Sep-21,5,5,25,25
10:34:37,30-Sep-21,5,5,25,25
10:34:37,30-Sep-21,5,5,25,25
10:34:37,30-Sep-21,5,5,25,25
10:34:37,30-Sep-21,5,5,25,25
10:34:37,30-Sep-21,5,5,25,25
10:34:37,30-Sep-21,5,5,25,25
10:34:37,30-Sep-21,5,5,25,25
10:34:37,30-Sep-21,5,5,25,25
10:34:37,30-Sep-21,5,5,25,25
10:34:37,30-Sep-21,5,5,25,25
10:34:37,30-Sep-21,5,5,25,25
10:34:37,30-Sep-21,5,5,25,25
10:34:37,30-Sep-21,5,5,25,25
10:34:37,30-Sep-21,5,5,25,25
10:34:37,30-Sep-21,5,5,25,25
10:34:37,30-Sep-21,5,5,25,25
10:34:37,30-Sep-21,5,5,25,25
10:34:37,30-Sep-21,5,5,25,25
10:34:37,30-Sep-21,5,5,25,25
10:34:37,30-Sep-21,5,5,25,25
10:34:37,30-Sep-21,5,5,25,25
10:34:37,30-Sep-21,5,5,25,25
10:34:37,30-Sep-21,5,5,25,25
10:34:37,30-Sep-21,5,5,25,25
10:34:37,30-Sep-21,5,5,25,25
10:34:37,30-Sep-21,5,5,25,25
10:34:37,30-Sep-21,5,5,25,25
10:34:37,30-Sep-21,5,5,25,25
10:34:37,30-Sep-21,5,5,25,25
10:34:37,30-Sep-21,5,5,25,25
10:34:37,30-Sep-21,5,5,25,25
10:34:37,30-Sep-21,5,5,25,25
10:34:37,30-Sep-21,5,5,25,25
10:34:37,30-Sep-21,5,5,25,25
10:34:37,30-Sep-21,5,5,25,25
10:34:37,30-Sep-21,5,5,25,25
10:34:38,30-Sep-21,5,5,25,25
10:34:38,30-Sep-21,5,5,25,25
10:34:38,30-Sep-21,5,5,25,25
10:34:38,30-Sep-21,5,5,25,25
10:34:38,30-Sep-21,5,5,25,25
10:34:38,30-Sep-21,5,5,25,25
10:34:38,30-Sep-21,5,5,25,25
10:34:38,30-Sep-21,5,5,25,25
10:34:38,30-Sep-21,5,5,25,25
10:34:38,30-Sep-21,5,5,25,25
10:34:38,30-Sep-21,5,5,25,25
10:34:38,30-Sep-21,5,5,25,25
10:34:38,30-Sep-21,5,5,25,25
10:34:38,30-Sep-21,5,5,25,25
10:34:38,30-Sep-21,5,5,25,25
10:34:38,30-Sep-21,5,5,25,25
10:34:38,30-Sep-21,5,5,25,25
10:34:38,30-Sep-21,5,5,25,25
10:34:38,30-Sep-21,5,5,25,25
10:34:38,30-Sep-21,5,5,25,25
10:34:38,30-Sep-21,5,5,25,25
10:34:38,30-Sep-21,5,5,25,25
10:34:38,30-Sep-21,5,5,25,25
10:34:38,30-Sep-21,5,5,25,25
10:34:38,30-Sep-21,5,5,25,25
10:34:38,30-Sep-21,5,5,25,25
10:34:38,30-Sep-21,5,5,25,25
10:34:38,30-Sep-21,5,5,25,25
10:34:38,30-Sep-21,5,5,25,25
10:34:38,30-Sep-21,5,5,25,25
10:34:38,30-Sep-21,5,5,25,25
10:34:38,30-Sep-21,5,5,25,25
10:34:38,30-Sep-21,5,5,25,25
10:34:38,30-Sep-21,5,5,25,25
10:34:38,30-Sep-21,5,5,25,25
10:34:38,30-Sep-21,5,5,25,25
10:34:38,30-Sep-21,5,5,25,25
10:34:38,30-Sep-21,5,5,25,25
10:34:38,30-Sep-21,5,5,25,25
10:34:38,30-Sep-21,5,5,25,25
10:34:38,30-Sep-21,5,5,25,25
10:34:38,30-Sep-21,5,5,25,25
10:34:38,30-Sep-21,5,5,25,25
10:34:38,30-Sep-21,5,5,25,25
10:34:38,30-Sep-21,5,5,25,25
10:34:38,30-Sep-21,5,5,25,25
10:34:38,30-Sep-21,5,5,25,25
10:34:38,30-Sep-21,5,5,25,25
10:34:38,30-Sep-21,5,5,25,25
10:34:38,30-Sep-21,5,5,25,25
10:34:38,30-Sep-21,5,5,25,25
10:34:38,30-Sep-21,5,5,25,25
10:34:38,30-Sep-21,5,5,25,25
10:34:38,30-Sep-21,5,5,25,25
10:34:38,30-Sep-21,5,5,25,25
10:34:38,30-Sep-21,5,5,25,25
10:34:38,30-Sep-21,5,5,25,25
10:34:38,30-Sep-21,5,5,25,25
10:34:38,30-Sep-21,5,5,25,25
10:34:38,30-Sep-21,5,5,25,25
10:34:38,30-Sep-21,5,5,25,25
10:34:38,30-Sep-21,5,5,25,25
10:34:38,30-Sep-21,5,5,25,25
10:34:38,30-Sep-21,5,5,25,25
10:34:38,30-Sep-21,5,5,25,25
10:34:38,30-Sep-21,5,5,25,25
10:34:38,30-Sep-21,5,5,25,25
10:34:38,30-Sep-21,5,5,25,25
10:34:38,30-Sep-21,5,5,25,25
10:34:38,30-Sep-21,5,5,25,25
10:34:38,30-Sep-21,5,5,25,25
10:34:38,30-Sep-21,5,5,25,25
10:34:38,30-Sep-21,5,5,25,25
10:34:38,30-Sep-21,5,5,25,25
10:34:38,30-Sep-21,5,5,25,25
10:34:38,30-Sep-21,5,5,25,25
10:34:38,30-Sep-21,5,5,25,25
10:34:38,30-Sep-21,5,5,25,25
10:34:38,30-Sep-21,5,5,25,25
10:34:38,30-Sep-21,5,5,25,25
10:34:38,30-Sep-21,5,5,25,25
10:34:38,30-Sep-21,5,5,25,25
10:34:38,30-Sep-21,5,5,25,25
10:34:38,30-Sep-21,5,5,25,25
10:34:38,30-Sep-21,5,5,25,25
10:34:38,30-Sep-21,5,5,25,25
10:34:38,30-Sep-21,5,5,25,25
10:34:38,30-Sep-21,5,5,25,25
10:34:38,30-Sep-21,5,5,25,25
10:34:38,30-Sep-21,5,5,25,25
10:34:38,30-Sep-21,5,5,25,25
10:34:38,30-Sep-21,5,5,25,25
10:34:38,30-Sep-21,5,5,25,25
10:34:38,30-Sep-21,5,5,25,25
10:34:38,30-Sep-21,5,5,25,25
10:34:38,30-Sep-21,5,5,25,25
10:34:38,30-Sep-21,5,5,25,25
10:34:38,30-Sep-21,5,5,25,25
10:34:38,30-Sep-21,5,5,25,25
10:34:38,30-Sep-21,5,5,25,25
10:34:38,30-Sep-21,5,5,25,25
10:34:38,30-Sep-21,5,5,25,25
10:34:38,30-Sep-21,5,5,25,25
10:34:39,30-Sep-21,5,5,25,25
10:34:39,30-Sep-21,5,5,25,25
10:34:39,30-Sep-21,5,5,25,25
10:34:39,30-Sep-21,5,5,25,25
10:34:39,30-Sep-21,5,5,25,25
10:34:39,30-Sep-21,5,5,25,25
10:34:39,30-Sep-21,5,5,25,25
10:34:39,30-Sep-21,5,5,25,25
10:34:39,30-Sep-21,5,5,25,25
10:34:39,30-Sep-21,5,5,25,25
10:34:39,30-Sep-21,5,5,25,25
10:34:39,30-Sep-21,5,5,25,25
10:34:39,30-Sep-21,5,5,25,25
10:34:39,30-Sep-21,5,5,25,25
10:34:39,30-Sep-21,5,5,25,25
10:34:39,30-Sep-21,5,5,25,25
10:34:39,30-Sep-21,5,5,25,25
10:34:39,30-Sep-21,5,5,25,25
10:34:39,30-Sep-21,5,5,25,25
10:34:39,30-Sep-21,5,5,25,25
10:34:39,30-Sep-21,5,5,25,25
10:34:39,30-Sep-21,5,5,25,25
10:34:39,30-Sep-21,5,5,25,25
10:34:39,30-Sep-21,5,5,25,25
10:34:39,30-Sep-21,5,5,25,25
10:34:39,30-Sep-21,5,5,25,25
10:34:39,30-Sep-21,5,5,25,25
10:34:39,30-Sep-21,5,5,25,25
10:34:39,30-Sep-21,5,5,25,25
10:34:39,30-Sep-21,5,5,25,25
10:34:39,30-Sep-21,5,5,25,25
10:34:39,30-Sep-21,5,5,25,25
10:34:39,30-Sep-21,5,5,25,25
10:34:39,30-Sep-21,5,5,25,25
10:34:39,30-Sep-21,5,5,25,25
10:34:39,30-Sep-21,5,5,25,25
10:34:39,30-Sep-21,5,5,25,25
10:34:39,30-Sep-21,5,5,25,25
10:34:39,30-Sep-21,5,5,25,25
10:34:39,30-Sep-21,5,5,25,25
10:34:39,30-Sep-21,5,5,25,25
10:34:39,30-Sep-21,5,5,25,25
10:34:39,30-Sep-21,5,5,25,25
10:34:39,30-Sep-21,5,5,25,25
10:34:39,30-Sep-21,5,5,25,25
10:34:39,30-Sep-21,5,5,25,25
10:34:39,30-Sep-21,5,5,25,25
10:34:39,30-Sep-21,5,5,25,25
10:34:39,30-Sep-21,5,5,25,25
10:34:39,30-Sep-21,5,5,25,25
10:34:39,30-Sep-21,5,5,25,25
10:34:39,30-Sep-21,5,5,25,25
10:34:39,30-Sep-21,5,5,25,25
10:34:39,30-Sep-21,5,5,25,25
10:34:39,30-Sep-21,5,5,25,25
10:34:39,30-Sep-21,5,5,25,25
10:34:39,30-Sep-21,5,5,25,25
10:34:39,30-Sep-21,5,5,25,25
10:34:39,30-Sep-21,5,5,25,25
10:34:39,30-Sep-21,5,5,25,25
10:34:39,30-Sep-21,5,5,25,25
10:34:39,30-Sep-21,5,5,25,25
10:34:39,30-Sep-21,5,5,25,25
10:34:39,30-Sep-21,5,5,25,25
10:34:39,30-Sep-21,5,5,25,25
10:34:39,30-Sep-21,5,5,25,25
10:34:39,30-Sep-21,5,5,25,25
10:34:39,30-Sep-21,5,5,25,25
10:34:39,30-Sep-21,5,5,25,25
10:34:39,30-Sep-21,5,5,25,25
10:34:39,30-Sep-21,5,5,25,25
10:34:39,30-Sep-21,5,5,25,25
10:34:39,30-Sep-21,5,5,25,25
10:34:39,30-Sep-21,5,5,25,25
10:34:39,30-Sep-21,5,5,25,25
10:34:39,30-Sep-21,5,5,25,25
10:34:39,30-Sep-21,5,5,25,25
10:34:39,30-Sep-21,5,5,25,25
10:34:39,30-Sep-21,5,5,25,25
10:34:39,30-Sep-21,5,5,25,25
10:34:39,30-Sep-21,5,5,25,25
10:34:39,30-Sep-21,5,5,25,25
10:34:39,30-Sep-21,5,5,25,25
10:34:39,30-Sep-21,5,5,25,25
10:34:39,30-Sep-21,5,5,25,25
10:34:39,30-Sep-21,5,5,25,25
10:34:39,30-Sep-21,5,5,25,25
10:34:39,30-Sep-21,5,5,25,25
10:34:39,30-Sep-21,5,5,25,25
10:34:39,30-Sep-21,5,5,25,25
10:34:39,30-Sep-21,5,5,25,25
10:34:39,30-Sep-21,5,5,25,25
10:34:39,30-Sep-21,5,5,25,25
10:34:39,30-Sep-21,5,5,25,25
10:34:39,30-Sep-21,5,5,25,25
10:34:39,30-Sep-21,5,5,25,25
10:34:39,30-Sep-21,5,5,25,25
10:34:39,30-Sep-21,5,5,25,25
10:34:39,30-Sep-21,5,5,25,25
10:34:39,30-Sep-21,5,5,25,25
10:34:39,30-Sep-21,5,5,25,25
10:34:39,30-Sep-21,5,5,25,25
10:34:39,30-Sep-21,5,5,25,25
10:34:39,30-Sep-21,5,5,25,25
10:34:39,30-Sep-21,5,5,25,25
10:34:39,30-Sep-21,5,5,25,25
10:34:39,30-Sep-21,5,5,25,25
10:34:39,30-Sep-21,5,5,25,25
10:34:39,30-Sep-21,5,5,25,25
10:34:39,30-Sep-21,5,5,25,25
10:34:39,30-Sep-21,5,5,25,25
10:34:39,30-Sep-21,5,5,25,25
10:34:39,30-Sep-21,5,5,25,25
10:34:39,30-Sep-21,5,5,25,25
10:34:39,30-Sep-21,5,5,25,25
10:34:39,30-Sep-21,5,5,25,25
10:34:39,30-Sep-21,5,5,25,25
10:34:39,30-Sep-21,5,5,25,25
10:34:39,30-Sep-21,5,5,25,25
10:34:40,30-Sep-21,5,5,25,25
10:34:40,30-Sep-21,5,5,25,25
10:34:40,30-Sep-21,5,5,25,25
10:34:40,30-Sep-21,5,5,25,25
10:34:40,30-Sep-21,5,5,25,25
10:34:40,30-Sep-21,5,5,25,25
10:34:40,30-Sep-21,5,5,25,25
10:34:40,30-Sep-21,5,5,25,25
10:34:40,30-Sep-21,5,5,25,25
10:34:40,30-Sep-21,5,5,25,25
10:34:40,30-Sep-21,5,5,25,25
10:34:40,30-Sep-21,5,5,25,25
10:34:40,30-Sep-21,5,5,25,25
10:34:40,30-Sep-21,5,5,25,25
10:34:40,30-Sep-21,5,5,25,25
10:34:40,30-Sep-21,5,5,25,25
10:34:40,30-Sep-21,5,5,25,25
10:34:40,30-Sep-21,5,5,25,25
10:34:40,30-Sep-21,5,5,25,25
10:34:40,30-Sep-21,5,5,25,25
10:34:40,30-Sep-21,5,5,25,25
10:34:40,30-Sep-21,5,5,25,25
10:34:40,30-Sep-21,5,5,25,25
10:34:40,30-Sep-21,5,5,25,25
10:34:40,30-Sep-21,5,5,25,25
10:34:40,30-Sep-21,5,5,25,25
10:34:40,30-Sep-21,5,5,25,25
10:34:40,30-Sep-21,5,5,25,25
10:34:40,30-Sep-21,5,5,25,25
10:34:40,30-Sep-21,5,5,25,25
10:34:40,30-Sep-21,5,5,25,25
10:34:40,30-Sep-21,5,5,25,25
10:34:40,30-Sep-21,5,5,25,25
10:34:40,30-Sep-21,5,5,25,25
10:34:40,30-Sep-21,5,5,25,25
10:34:40,30-Sep-21,5,5,25,25
10:34:40,30-Sep-21,5,5,25,25
10:34:40,30-Sep-21,5,5,25,25
10:34:40,30-Sep-21,5,5,25,25
10:34:40,30-Sep-21,5,5,25,25
10:34:40,30-Sep-21,5,5,25,25
10:34:40,30-Sep-21,5,5,25,25
10:34:40,30-Sep-21,5,5,25,25
10:34:40,30-Sep-21,5,5,25,25
10:34:40,30-Sep-21,5,5,25,25
10:34:40,30-Sep-21,5,5,25,25
10:34:40,30-Sep-21,5,5,25,25
10:34:40,30-Sep-21,5,5,25,25
10:34:40,30-Sep-21,5,5,25,25
10:34:40,30-Sep-21,5,5,25,25
10:34:40,30-Sep-21,5,5,25,25
10:34:40,30-Sep-21,5,5,25,25
10:34:40,30-Sep-21,5,5,25,25
10:34:40,30-Sep-21,5,5,25,25
10:34:40,30-Sep-21,5,5,25,25
10:34:40,30-Sep-21,5,5,25,25
10:34:40,30-Sep-21,5,5,25,25
10:34:40,30-Sep-21,5,5,25,25
10:34:40,30-Sep-21,5,5,25,25
10:34:40,30-Sep-21,5,5,25,25
10:34:40,30-Sep-21,5,5,25,25
10:34:40,30-Sep-21,5,5,25,25
10:34:40,30-Sep-21,5,5,25,25
10:34:40,30-Sep-21,5,5,25,25
10:34:40,30-Sep-21,5,5,25,25
10:34:40,30-Sep-21,5,5,25,25
10:34:40,30-Sep-21,5,5,25,25
10:34:40,30-Sep-21,5,5,25,25
10:34:40,30-Sep-21,5,5,25,25
10:34:40,30-Sep-21,5,5,25,25
10:34:40,30-Sep-21,5,5,25,25
10:34:40,30-Sep-21,5,5,25,25
10:34:40,30-Sep-21,5,5,25,25
10:34:40,30-Sep-21,5,5,25,25
10:34:40,30-Sep-21,5,5,25,25
10:34:40,30-Sep-21,5,5,25,25
10:34:40,30-Sep-21,5,5,25,25
10:34:40,30-Sep-21,5,5,25,25
10:34:40,30-Sep-21,5,5,25,25
10:34:40,30-Sep-21,5,5,25,25
10:34:40,30-Sep-21,5,5,25,25
10:34:40,30-Sep-21,5,5,25,25
10:34:40,30-Sep-21,5,5,25,25
10:34:40,30-Sep-21,5,5,25,25
10:34:40,30-Sep-21,5,5,25,25
10:34:40,30-Sep-21,5,5,25,25
10:34:40,30-Sep-21,5,5,25,25
10:34:40,30-Sep-21,5,5,25,25
10:34:40,30-Sep-21,5,5,25,25
10:34:40,30-Sep-21,5,5,25,25
10:34:40,30-Sep-21,5,5,25,25
10:34:40,30-Sep-21,5,5,25,25
10:34:40,30-Sep-21,5,5,25,25
10:34:40,30-Sep-21,5,5,25,25
10:34:40,30-Sep-21,5,5,25,25
10:34:40,30-Sep-21,5,5,25,25
10:34:40,30-Sep-21,5,5,25,25
10:34:40,30-Sep-21,5,5,25,25
10:34:40,30-Sep-21,5,5,25,25
10:34:40,30-Sep-21,5,5,25,25
10:34:40,30-Sep-21,5,5,25,25
10:34:40,30-Sep-21,5,5,25,25
10:34:40,30-Sep-21,5,5,25,25
10:34:40,30-Sep-21,5,5,25,25
10:34:40,30-Sep-21,5,5,25,25
10:34:40,30-Sep-21,5,5,25,25
10:34:40,30-Sep-21,5,5,25,25
10:34:40,30-Sep-21,5,5,25,25
10:34:40,30-Sep-21,5,5,25,25
10:34:40,30-Sep-21,5,5,25,25
10:34:40,30-Sep-21,5,5,25,25
10:34:41,30-Sep-21,5,5,25,25
10:34:41,30-Sep-21,5,5,25,25
10:34:41,30-Sep-21,5,5,25,25
10:34:41,30-Sep-21,5,5,25,25
10:34:41,30-Sep-21,5,5,25,25
10:34:41,30-Sep-21,5,5,25,25
10:34:41,30-Sep-21,5,5,25,25
10:34:41,30-Sep-21,5,5,25,25
10:34:41,30-Sep-21,5,5,25,25
10:34:41,30-Sep-21,5,5,25,25
10:34:41,30-Sep-21,5,5,25,25
10:34:41,30-Sep-21,5,5,25,25
10:34:41,30-Sep-21,5,5,25,25
10:34:41,30-Sep-21,5,5,25,25
10:34:41,30-Sep-21,5,5,25,25
10:34:41,30-Sep-21,5,5,25,25
10:34:41,30-Sep-21,5,5,25,25
10:34:41,30-Sep-21,5,5,25,25
10:34:41,30-Sep-21,5,5,25,25
10:34:41,30-Sep-21,5,5,25,25
10:34:41,30-Sep-21,5,5,25,25
10:34:41,30-Sep-21,5,5,25,25
10:34:41,30-Sep-21,5,5,25,25
10:34:41,30-Sep-21,5,5,25,25
10:34:41,30-Sep-21,5,5,25,25
10:34:41,30-Sep-21,5,5,25,25
10:34:41,30-Sep-21,5,5,25,25
10:34:41,30-Sep-21,5,5,25,25
10:34:41,30-Sep-21,5,5,25,25
10:34:41,30-Sep-21,5,5,25,25
10:34:41,30-Sep-21,5,5,25,25
10:34:41,30-Sep-21,5,5,25,25
10:34:41,30-Sep-21,5,5,25,25
10:34:41,30-Sep-21,5,5,25,25
10:34:41,30-Sep-21,5,5,25,25
10:34:41,30-Sep-21,5,5,25,25
10:34:41,30-Sep-21,5,5,25,25
10:34:41,30-Sep-21,5,5,25,25
10:34:41,30-Sep-21,5,5,25,25
10:34:41,30-Sep-21,5,5,25,25
10:34:41,30-Sep-21,5,5,25,25
10:34:41,30-Sep-21,5,5,25,25
10:34:41,30-Sep-21,5,5,25,25
10:34:41,30-Sep-21,5,5,25,25
10:34:41,30-Sep-21,5,5,25,25
10:34:41,30-Sep-21,5,5,25,25
10:34:41,30-Sep-21,5,5,25,25
10:34:41,30-Sep-21,5,5,25,25
10:34:41,30-Sep-21,5,5,25,25
10:34:41,30-Sep-21,5,5,25,25
10:34:41,30-Sep-21,5,5,25,25
10:34:41,30-Sep-21,5,5,25,25
10:34:41,30-Sep-21,5,5,25,25
10:34:41,30-Sep-21,5,5,25,25
10:34:41,30-Sep-21,5,5,25,25
10:34:41,30-Sep-21,5,5,25,25
10:34:41,30-Sep-21,5,5,25,25
10:34:41,30-Sep-21,5,5,25,25
10:34:41,30-Sep-21,5,5,25,25
10:34:41,30-Sep-21,5,5,25,25
10:34:41,30-Sep-21,5,5,25,25
10:34:41,30-Sep-21,5,5,25,25
10:34:41,30-Sep-21,5,5,25,25
10:34:41,30-Sep-21,5,5,25,25
10:34:41,30-Sep-21,5,5,25,25
10:34:41,30-Sep-21,5,5,25,25
10:34:41,30-Sep-21,5,5,25,25
10:34:41,30-Sep-21,5,5,25,25
10:34:41,30-Sep-21,5,5,25,25
10:34:41,30-Sep-21,5,5,25,25
10:34:41,30-Sep-21,5,5,25,25
10:34:41,30-Sep-21,5,5,25,25
10:34:41,30-Sep-21,5,5,25,25
10:34:41,30-Sep-21,5,5,25,25
10:34:41,30-Sep-21,5,5,25,25
10:34:41,30-Sep-21,5,5,25,25
10:34:41,30-Sep-21,5,5,25,25
10:34:41,30-Sep-21,5,5,25,25
10:34:41,30-Sep-21,5,5,25,25
10:34:41,30-Sep-21,5,5,25,25
10:34:41,30-Sep-21,5,5,25,25
10:34:41,30-Sep-21,5,5,25,25
10:34:41,30-Sep-21,5,5,25,25
10:34:41,30-Sep-21,5,5,25,25
10:34:41,30-Sep-21,5,5,25,25
10:34:41,30-Sep-21,5,5,25,25
10:34:41,30-Sep-21,5,5,25,25
10:34:41,30-Sep-21,5,5,25,25
10:34:41,30-Sep-21,5,5,25,25
10:34:41,30-Sep-21,5,5,25,25
10:34:41,30-Sep-21,5,5,25,25
10:34:41,30-Sep-21,5,5,25,25
10:34:41,30-Sep-21,5,5,25,25
10:34:41,30-Sep-21,5,5,25,25
10:34:41,30-Sep-21,5,5,25,25
10:34:41,30-Sep-21,5,5,25,25
10:34:41,30-Sep-21,5,5,25,25
10:34:41,30-Sep-21,5,5,25,25
10:34:41,30-Sep-21,5,5,25,25
10:34:41,30-Sep-21,5,5,25,25
10:34:41,30-Sep-21,5,5,25,25
10:34:42,30-Sep-21,5,5,25,25
10:34:42,30-Sep-21,5,5,25,25
10:34:42,30-Sep-21,5,5,25,25
10:34:42,30-Sep-21,5,5,25,25
10:34:42,30-Sep-21,5,5,25,25
10:34:42,30-Sep-21,5,5,25,25
10:34:42,30-Sep-21,5,5,25,25
10:34:42,30-Sep-21,5,5,25,25
10:34:42,30-Sep-21,5,5,25,25
10:34:42,30-Sep-21,5,5,25,25
10:34:42,30-Sep-21,5,5,25,25
10:34:42,30-Sep-21,5,5,25,25
10:34:42,30-Sep-21,5,5,25,25
10:34:42,30-Sep-21,5,5,25,25
10:34:42,30-Sep-21,5,5,25,25
10:34:42,30-Sep-21,5,5,25,25
10:34:42,30-Sep-21,5,5,25,25
10:34:42,30-Sep-21,5,5,25,25
10:34:42,30-Sep-21,5,5,25,25
10:34:42,30-Sep-21,5,5,25,25
10:34:42,30-Sep-21,5,5,25,25
10:34:42,30-Sep-21,5,5,25,25
10:34:42,30-Sep-21,5,5,25,25
10:34:42,30-Sep-21,5,5,25,25
10:34:42,30-Sep-21,5,5,25,25
10:34:42,30-Sep-21,5,5,25,25
10:34:42,30-Sep-21,5,5,25,25
10:34:42,30-Sep-21,5,5,25,25
10:34:42,30-Sep-21,5,5,25,25
10:34:42,30-Sep-21,5,5,25,25
10:34:42,30-Sep-21,5,5,25,25
10:34:42,30-Sep-21,5,5,25,25
10:34:42,30-Sep-21,5,5,25,25
10:34:42,30-Sep-21,5,5,25,25
10:34:42,30-Sep-21,5,5,25,25
10:34:42,30-Sep-21,5,5,25,25
10:34:42,30-Sep-21,5,5,25,25
10:34:42,30-Sep-21,5,5,25,25
10:34:42,30-Sep-21,5,5,25,25
10:34:42,30-Sep-21,5,5,25,25
10:34:42,30-Sep-21,5,5,25,25
10:34:42,30-Sep-21,5,5,25,25
10:34:42,30-Sep-21,5,5,25,25
10:34:42,30-Sep-21,5,5,25,25
10:34:42,30-Sep-21,5,5,25,25
10:34:42,30-Sep-21,5,5,25,25
10:34:42,30-Sep-21,5,5,25,25
10:34:42,30-Sep-21,5,5,25,25
10:34:42,30-Sep-21,5,5,25,25
10:34:42,30-Sep-21,5,5,25,25
10:34:42,30-Sep-21,5,5,25,25
10:34:42,30-Sep-21,5,5,25,25
10:34:42,30-Sep-21,5,5,25,25
10:34:42,30-Sep-21,5,5,25,25
10:34:42,30-Sep-21,5,5,25,25
10:34:42,30-Sep-21,5,5,25,25
10:34:42,30-Sep-21,5,5,25,25
10:34:42,30-Sep-21,5,5,25,25
10:34:42,30-Sep-21,5,5,25,25
10:34:42,30-Sep-21,5,5,25,25
10:34:42,30-Sep-21,5,5,25,25
10:34:42,30-Sep-21,5,5,25,25
10:34:42,30-Sep-21,5,5,25,25
10:34:42,30-Sep-21,5,5,25,25
10:34:42,30-Sep-21,5,5,25,25
10:34:42,30-Sep-21,5,5,25,25
10:34:42,30-Sep-21,5,5,25,25
10:34:42,30-Sep-21,5,5,25,25
10:34:42,30-Sep-21,5,5,25,25
10:34:42,30-Sep-21,5,5,25,25
10:34:42,30-Sep-21,5,5,25,25
10:34:42,30-Sep-21,5,5,25,25
10:34:42,30-Sep-21,5,5,25,25
10:34:42,30-Sep-21,5,5,25,25
10:34:42,30-Sep-21,5,5,25,25
10:34:42,30-Sep-21,5,5,25,25
10:34:42,30-Sep-21,5,5,25,25
10:34:42,30-Sep-21,5,5,25,25
10:34:42,30-Sep-21,5,5,25,25
10:34:42,30-Sep-21,5,5,25,25
10:34:42,30-Sep-21,5,5,25,25
10:34:42,30-Sep-21,5,5,25,25
10:34:42,30-Sep-21,5,5,25,25
10:34:42,30-Sep-21,5,5,25,25
10:34:42,30-Sep-21,5,5,25,25
10:34:42,30-Sep-21,5,5,25,25
10:34:42,30-Sep-21,5,5,25,25
10:34:43,30-Sep-21,5,5,25,25
10:34:43,30-Sep-21,5,5,25,25
10:34:43,30-Sep-21,5,5,25,25
10:34:43,30-Sep-21,5,5,25,25
10:34:43,30-Sep-21,5,5,25,25
10:34:43,30-Sep-21,5,5,25,25
10:34:43,30-Sep-21,5,5,25,25
10:34:43,30-Sep-21,5,5,25,25
10:34:43,30-Sep-21,5,5,25,25
10:34:43,30-Sep-21,5,5,25,25
10:34:43,30-Sep-21,5,5,25,25
10:34:43,30-Sep-21,5,5,25,25
10:34:43,30-Sep-21,5,5,25,25
10:34:43,30-Sep-21,5,5,25,25
10:34:43,30-Sep-21,5,5,25,25
10:34:43,30-Sep-21,5,5,25,25
10:34:43,30-Sep-21,5,5,25,25
10:34:43,30-Sep-21,5,5,25,25
10:34:43,30-Sep-21,5,5,25,25
10:34:43,30-Sep-21,5,5,25,25
10:34:43,30-Sep-21,5,5,25,25
10:34:43,30-Sep-21,5,5,25,25
10:34:43,30-Sep-21,5,5,25,25
10:34:43,30-Sep-21,5,5,25,25
10:34:43,30-Sep-21,5,5,25,25
10:34:43,30-Sep-21,5,5,25,25
10:34:43,30-Sep-21,5,5,25,25
10:34:43,30-Sep-21,5,5,25,25
10:34:43,30-Sep-21,5,5,25,25
10:34:43,30-Sep-21,5,5,25,25
10:34:43,30-Sep-21,5,5,25,25
10:34:43,30-Sep-21,5,5,25,25
10:34:43,30-Sep-21,5,5,25,25
10:34:43,30-Sep-21,5,5,25,25
10:34:43,30-Sep-21,5,5,25,25
10:34:43,30-Sep-21,5,5,25,25
10:34:43,30-Sep-21,5,5,25,25
10:34:43,30-Sep-21,5,5,25,25
10:34:43,30-Sep-21,5,5,25,25
10:34:43,30-Sep-21,5,5,25,25
10:34:43,30-Sep-21,5,5,25,25
10:34:43,30-Sep-21,5,5,25,25
10:34:43,30-Sep-21,5,5,25,25
10:34:43,30-Sep-21,5,5,25,25
10:34:43,30-Sep-21,5,5,25,25
10:34:43,30-Sep-21,5,5,25,25
10:34:43,30-Sep-21,5,5,25,25
10:34:43,30-Sep-21,5,5,25,25
10:34:43,30-Sep-21,5,5,25,25
10:34:43,30-Sep-21,5,5,25,25
10:34:43,30-Sep-21,5,5,25,25
10:34:43,30-Sep-21,5,5,25,25
10:34:43,30-Sep-21,5,5,25,25
10:34:43,30-Sep-21,5,5,25,25
10:34:43,30-Sep-21,5,5,25,25
10:34:43,30-Sep-21,5,5,25,25
10:34:43,30-Sep-21,5,5,25,25
10:34:43,30-Sep-21,5,5,25,25
10:34:43,30-Sep-21,5,5,25,25
10:34:43,30-Sep-21,5,5,25,25
10:34:43,30-Sep-21,5,5,25,25
10:34:43,30-Sep-21,5,5,25,25
10:34:43,30-Sep-21,5,5,25,25
10:34:43,30-Sep-21,5,5,25,25
10:34:43,30-Sep-21,5,5,25,25
10:34:43,30-Sep-21,5,5,25,25
10:34:43,30-Sep-21,5,5,25,25
10:34:43,30-Sep-21,5,5,25,25
10:34:43,30-Sep-21,5,5,25,25
10:34:43,30-Sep-21,5,5,25,25
10:34:43,30-Sep-21,5,5,25,25
10:34:43,30-Sep-21,5,5,25,25
10:34:43,30-Sep-21,5,5,25,25
10:34:43,30-Sep-21,5,5,25,25
10:34:43,30-Sep-21,5,5,25,25
10:34:43,30-Sep-21,5,5,25,25
10:34:43,30-Sep-21,5,5,25,25
10:34:43,30-Sep-21,5,5,25,25
10:34:43,30-Sep-21,5,5,25,25
10:34:43,30-Sep-21,5,5,25,25
10:34:43,30-Sep-21,5,5,25,25
10:34:43,30-Sep-21,5,5,25,25
10:34:43,30-Sep-21,5,5,25,25
10:34:43,30-Sep-21,5,5,25,25
10:34:43,30-Sep-21,5,5,25,25
10:34:43,30-Sep-21,5,5,25,25
10:34:43,30-Sep-21,5,5,25,25
10:34:44,30-Sep-21,5,5,25,25
10:34:44,30-Sep-21,5,5,25,25
10:34:44,30-Sep-21,5,5,25,25
10:34:44,30-Sep-21,5,5,25,25
10:34:44,30-Sep-21,5,5,25,25
10:34:44,30-Sep-21,5,5,25,25
10:34:44,30-Sep-21,5,5,25,25
10:34:44,30-Sep-21,5,5,25,25
10:34:44,30-Sep-21,5,5,25,25
10:34:44,30-Sep-21,5,5,25,25
10:34:44,30-Sep-21,5,5,25,25
10:34:44,30-Sep-21,5,5,25,25
10:34:44,30-Sep-21,5,5,25,25
10:34:44,30-Sep-21,5,5,25,25
10:34:44,30-Sep-21,5,5,25,25
10:34:44,30-Sep-21,5,5,25,25
10:34:44,30-Sep-21,5,5,25,25
10:34:44,30-Sep-21,5,5,25,25
10:34:44,30-Sep-21,5,5,25,25
10:34:44,30-Sep-21,5,5,25,25
10:34:44,30-Sep-21,5,5,25,25
10:34:44,30-Sep-21,5,5,25,25
10:34:44,30-Sep-21,5,5,25,25
10:34:44,30-Sep-21,5,5,25,25
10:34:44,30-Sep-21,5,5,25,25
10:34:44,30-Sep-21,5,5,25,25
10:34:44,30-Sep-21,5,5,25,25
10:34:44,30-Sep-21,5,5,25,25
10:34:44,30-Sep-21,5,5,25,25
10:34:44,30-Sep-21,5,5,25,25
10:34:44,30-Sep-21,5,5,25,25
10:34:44,30-Sep-21,5,5,25,25
10:34:44,30-Sep-21,5,5,25,25
10:34:44,30-Sep-21,5,5,25,25
10:34:44,30-Sep-21,5,5,25,25
10:34:44,30-Sep-21,5,5,25,25
10:34:44,30-Sep-21,5,5,25,25
10:34:44,30-Sep-21,5,5,25,25
10:34:44,30-Sep-21,5,5,25,25
10:34:44,30-Sep-21,5,5,25,25
10:34:44,30-Sep-21,5,5,25,25
10:34:44,30-Sep-21,5,5,25,25
10:34:44,30-Sep-21,5,5,25,25
10:34:44,30-Sep-21,5,5,25,25
10:34:44,30-Sep-21,5,5,25,25
10:34:44,30-Sep-21,5,5,25,25
10:34:44,30-Sep-21,5,5,25,25
10:34:44,30-Sep-21,5,5,25,25
10:34:44,30-Sep-21,5,5,25,25
10:34:44,30-Sep-21,5,5,25,25
10:34:44,30-Sep-21,5,5,25,25
10:34:44,30-Sep-21,5,5,25,25
10:34:44,30-Sep-21,5,5,25,25
10:34:44,30-Sep-21,5,5,25,25
10:34:44,30-Sep-21,5,5,25,25
10:34:44,30-Sep-21,5,5,25,25
10:34:44,30-Sep-21,5,5,25,25
10:34:44,30-Sep-21,5,5,25,25
10:34:44,30-Sep-21,5,5,25,25
10:34:44,30-Sep-21,5,5,25,25
10:34:44,30-Sep-21,5,5,25,25
10:34:44,30-Sep-21,5,5,25,25
10:34:44,30-Sep-21,5,5,25,25
10:34:44,30-Sep-21,5,5,25,25
10:34:44,30-Sep-21,5,5,25,25
10:34:44,30-Sep-21,5,5,25,25
10:34:44,30-Sep-21,5,5,25,25
10:34:44,30-Sep-21,5,5,25,25
10:34:44,30-Sep-21,5,5,25,25
10:34:44,30-Sep-21,5,5,25,25
10:34:44,30-Sep-21,5,5,25,25
10:34:44,30-Sep-21,5,5,25,25
10:34:44,30-Sep-21,5,5,25,25
10:34:44,30-Sep-21,5,5,25,25
10:34:44,30-Sep-21,5,5,25,25
10:34:44,30-Sep-21,5,5,25,25
10:34:44,30-Sep-21,5,5,25,25
10:34:44,30-Sep-21,5,5,25,25
10:34:44,30-Sep-21,5,5,25,25
10:34:44,30-Sep-21,5,5,25,25
10:34:44,30-Sep-21,5,5,25,25
10:34:44,30-Sep-21,5,5,25,25
10:34:44,30-Sep-21,5,5,25,25
10:34:44,30-Sep-21,5,5,25,25
10:34:44,30-Sep-21,5,5,25,25
10:34:44,30-Sep-21,5,5,25,25
10:34:44,30-Sep-21,5,5,25,25
10:34:44,30-Sep-21,5,5,25,25
10:34:44,30-Sep-21,5,5,25,25
10:34:45,30-Sep-21,5,5,25,25
10:34:45,30-Sep-21,5,5,25,25
10:34:45,30-Sep-21,5,5,25,25
10:34:45,30-Sep-21,5,5,25,25
10:34:45,30-Sep-21,5,5,25,25
10:34:45,30-Sep-21,5,5,25,25
10:34:45,30-Sep-21,5,5,25,25
10:34:45,30-Sep-21,5,5,25,25
10:34:45,30-Sep-21,5,5,25,25
10:34:45,30-Sep-21,5,5,25,25
10:34:45,30-Sep-21,5,5,25,25
10:34:45,30-Sep-21,5,5,25,25
10:34:45,30-Sep-21,5,5,25,25
10:34:45,30-Sep-21,5,5,25,25
10:34:45,30-Sep-21,5,5,25,25
10:34:45,30-Sep-21,5,5,25,25
10:34:45,30-Sep-21,5,5,25,25
10:34:45,30-Sep-21,5,5,25,25
10:34:45,30-Sep-21,5,5,25,25
10:34:45,30-Sep-21,5,5,25,25
10:34:45,30-Sep-21,5,5,25,25
10:34:45,30-Sep-21,5,5,25,25
10:34:45,30-Sep-21,5,5,25,25
10:34:45,30-Sep-21,5,5,25,25
10:34:45,30-Sep-21,5,5,25,25
10:34:45,30-Sep-21,5,5,25,25
10:34:45,30-Sep-21,5,5,25,25
10:34:45,30-Sep-21,5,5,25,25
10:34:45,30-Sep-21,5,5,25,25
10:34:45,30-Sep-21,5,5,25,25
10:34:45,30-Sep-21,5,5,25,25
10:34:45,30-Sep-21,5,5,25,25
10:34:45,30-Sep-21,5,5,25,25
10:34:45,30-Sep-21,5,5,25,25
10:34:45,30-Sep-21,5,5,25,25
10:34:45,30-Sep-21,5,5,25,25
10:34:45,30-Sep-21,5,5,25,25
10:34:45,30-Sep-21,5,5,25,25
10:34:45,30-Sep-21,5,5,25,25
10:34:45,30-Sep-21,5,5,25,25
10:34:45,30-Sep-21,5,5,25,25
10:34:45,30-Sep-21,5,5,25,25
10:34:45,30-Sep-21,5,5,25,25
10:34:45,30-Sep-21,5,5,25,25
10:34:45,30-Sep-21,5,5,25,25
10:34:45,30-Sep-21,5,5,25,25
10:34:45,30-Sep-21,5,5,25,25
10:34:45,30-Sep-21,5,5,25,25
10:34:45,30-Sep-21,5,5,25,25
10:34:45,30-Sep-21,5,5,25,25
10:34:45,30-Sep-21,5,5,25,25
10:34:45,30-Sep-21,5,5,25,25
10:34:45,30-Sep-21,5,5,25,25
10:34:45,30-Sep-21,5,5,25,25
10:34:45,30-Sep-21,5,5,25,25
10:34:45,30-Sep-21,5,5,25,25
10:34:45,30-Sep-21,5,5,25,25
10:34:45,30-Sep-21,5,5,25,25
10:34:45,30-Sep-21,5,5,25,25
10:34:45,30-Sep-21,5,5,25,25
10:34:45,30-Sep-21,5,5,25,25
10:34:45,30-Sep-21,5,5,25,25
10:34:45,30-Sep-21,5,5,25,25
10:34:45,30-Sep-21,5,5,25,25
10:34:45,30-Sep-21,5,5,25,25
10:34:45,30-Sep-21,5,5,25,25
10:34:45,30-Sep-21,5,5,25,25
10:34:45,30-Sep-21,5,5,25,25
10:34:45,30-Sep-21,5,5,25,25
10:34:45,30-Sep-21,5,5,25,25
10:34:45,30-Sep-21,5,5,25,25
10:34:45,30-Sep-21,5,5,25,25
10:34:45,30-Sep-21,5,5,25,25
10:34:45,30-Sep-21,5,5,25,25
10:34:45,30-Sep-21,5,5,25,25
10:34:45,30-Sep-21,5,5,25,25
10:34:45,30-Sep-21,5,5,25,25
10:34:45,30-Sep-21,5,5,25,25
10:34:45,30-Sep-21,5,5,25,25
10:34:45,30-Sep-21,5,5,25,25
10:34:45,30-Sep-21,5,5,25,25
10:34:45,30-Sep-21,5,5,25,25
10:34:45,30-Sep-21,5,5,25,25
10:34:45,30-Sep-21,5,5,25,25
10:34:45,30-Sep-21,5,5,25,25
10:34:45,30-Sep-21,5,5,25,25
10:34:45,30-Sep-21,5,5,25,25
10:34:45,30-Sep-21,5,5,25,25
10:34:45,30-Sep-21,5,5,25,25
10:34:45,30-Sep-21,5,5,25,25
10:34:45,30-Sep-21,5,5,25,25
10:34:45,30-Sep-21,5,5,25,25
10:34:45,30-Sep-21,5,5,25,25
10:34:45,30-Sep-21,5,5,25,25
10:34:45,30-Sep-21,5,5,25,25
10:34:45,30-Sep-21,5,5,25,25
10:34:45,30-Sep-21,5,5,25,25
10:34:45,30-Sep-21,5,5,25,25
10:34:45,30-Sep-21,5,5,25,25
10:34:45,30-Sep-21,5,5,25,25
10:34:46,30-Sep-21,5,5,25,25
10:34:46,30-Sep-21,5,5,25,25
10:34:46,30-Sep-21,5,5,25,25
10:34:46,30-Sep-21,5,5,25,25
10:34:46,30-Sep-21,5,5,25,25
10:34:46,30-Sep-21,5,5,25,25
10:34:46,30-Sep-21,5,5,25,25
10:34:46,30-Sep-21,5,5,25,25
10:34:46,30-Sep-21,5,5,25,25
10:34:46,30-Sep-21,5,5,25,25
10:34:46,30-Sep-21,5,5,25,25
10:34:46,30-Sep-21,5,5,25,25
10:34:46,30-Sep-21,5,5,25,25
10:34:46,30-Sep-21,5,5,25,25
10:34:46,30-Sep-21,5,5,25,25
10:34:46,30-Sep-21,5,5,25,25
10:34:46,30-Sep-21,5,5,25,25
10:34:46,30-Sep-21,5,5,25,25
10:34:46,30-Sep-21,5,5,25,25
10:34:46,30-Sep-21,5,5,25,25
10:34:46,30-Sep-21,5,5,25,25
10:34:46,30-Sep-21,5,5,25,25
10:34:46,30-Sep-21,5,5,25,25
10:34:46,30-Sep-21,5,5,25,25
10:34:46,30-Sep-21,5,5,25,25
10:34:46,30-Sep-21,5,5,25,25
10:34:46,30-Sep-21,5,5,25,25
10:34:46,30-Sep-21,5,5,25,25
10:34:46,30-Sep-21,5,5,25,25
10:34:46,30-Sep-21,5,5,25,25
10:34:46,30-Sep-21,5,5,25,25
10:34:46,30-Sep-21,5,5,25,25
10:34:46,30-Sep-21,5,5,25,25
10:34:46,30-Sep-21,5,5,25,25
10:34:46,30-Sep-21,5,5,25,25
10:34:46,30-Sep-21,5,5,25,25
10:34:46,30-Sep-21,5,5,25,25
10:34:46,30-Sep-21,5,5,25,25
10:34:46,30-Sep-21,5,5,25,25
10:34:46,30-Sep-21,5,5,25,25
10:34:46,30-Sep-21,5,5,25,25
10:34:46,30-Sep-21,5,5,25,25
10:34:46,30-Sep-21,5,5,25,25
10:34:46,30-Sep-21,5,5,25,25
10:34:46,30-Sep-21,5,5,25,25
10:34:46,30-Sep-21,5,5,25,25
10:34:46,30-Sep-21,5,5,25,25
10:34:46,30-Sep-21,5,5,25,25
10:34:46,30-Sep-21,5,5,25,25
10:34:46,30-Sep-21,5,5,25,25
10:34:46,30-Sep-21,5,5,25,25
10:34:46,30-Sep-21,5,5,25,25
10:34:46,30-Sep-21,5,5,25,25
10:34:46,30-Sep-21,5,5,25,25
10:34:46,30-Sep-21,5,5,25,25
10:34:46,30-Sep-21,5,5,25,25
10:34:46,30-Sep-21,5,5,25,25
10:34:46,30-Sep-21,5,5,25,25
10:34:46,30-Sep-21,5,5,25,25
10:34:46,30-Sep-21,5,5,25,25
10:34:46,30-Sep-21,5,5,25,25
10:34:46,30-Sep-21,5,5,25,25
10:34:46,30-Sep-21,5,5,25,25
10:34:46,30-Sep-21,5,5,25,25
10:34:46,30-Sep-21,5,5,25,25
10:34:46,30-Sep-21,5,5,25,25
10:34:46,30-Sep-21,5,5,25,25
10:34:46,30-Sep-21,5,5,25,25
10:34:46,30-Sep-21,5,5,25,25
10:34:46,30-Sep-21,5,5,25,25
10:34:46,30-Sep-21,5,5,25,25
10:34:46,30-Sep-21,5,5,25,25
10:34:46,30-Sep-21,5,5,25,25
10:34:46,30-Sep-21,5,5,25,25
10:34:46,30-Sep-21,5,5,25,25
10:34:46,30-Sep-21,5,5,25,25
10:34:46,30-Sep-21,5,5,25,25
10:34:46,30-Sep-21,5,5,25,25
10:34:46,30-Sep-21,5,5,25,25
10:34:46,30-Sep-21,5,5,25,25
10:34:46,30-Sep-21,5,5,25,25
10:34:46,30-Sep-21,5,5,25,25
10:34:46,30-Sep-21,5,5,25,25
10:34:46,30-Sep-21,5,5,25,25
10:34:46,30-Sep-21,5,5,25,25
10:34:46,30-Sep-21,5,5,25,25
10:34:46,30-Sep-21,5,5,25,25
10:34:46,30-Sep-21,5,5,25,25
10:34:46,30-Sep-21,5,5,25,25
10:34:46,30-Sep-21,5,5,25,25
10:34:46,30-Sep-21,5,5,25,25
10:34:46,30-Sep-21,5,5,25,25
10:34:46,30-Sep-21,5,5,25,25
10:34:46,30-Sep-21,5,5,25,25
10:34:46,30-Sep-21,5,5,25,25
10:34:46,30-Sep-21,5,5,25,25
10:34:46,30-Sep-21,5,5,25,25
10:34:46,30-Sep-21,5,5,25,25
10:34:46,30-Sep-21,5,5,25,25
10:34:46,30-Sep-21,5,5,25,25
10:34:46,30-Sep-21,5,5,25,25
10:34:46,30-Sep-21,5,5,25,25
10:34:46,30-Sep-21,5,5,25,25
10:34:46,30-Sep-21,5,5,25,25
10:34:46,30-Sep-21,5,5,25,25
10:34:46,30-Sep-21,5,5,25,25
10:34:46,30-Sep-21,5,5,25,25
10:34:46,30-Sep-21,5,5,25,25
10:34:46,30-Sep-21,5,5,25,25
10:34:46,30-Sep-21,5,5,25,25
10:34:46,30-Sep-21,5,5,25,25
10:34:46,30-Sep-21,5,5,25,25
10:34:47,30-Sep-21,5,5,25,25
10:34:47,30-Sep-21,5,5,25,25
10:34:47,30-Sep-21,5,5,25,25
10:34:47,30-Sep-21,5,5,25,25
10:34:47,30-Sep-21,5,5,25,25
10:34:47,30-Sep-21,5,5,25,25
10:34:47,30-Sep-21,5,5,25,25
10:34:47,30-Sep-21,5,5,25,25
10:34:47,30-Sep-21,5,5,25,25
10:34:47,30-Sep-21,5,5,25,25
10:34:47,30-Sep-21,5,5,25,25
10:34:47,30-Sep-21,5,5,25,25
10:34:47,30-Sep-21,5,5,25,25
10:34:47,30-Sep-21,5,5,25,25
10:34:47,30-Sep-21,5,5,25,25
10:34:47,30-Sep-21,5,5,25,25
10:34:47,30-Sep-21,5,5,25,25
10:34:47,30-Sep-21,5,5,25,25
10:34:47,30-Sep-21,5,5,25,25
10:34:47,30-Sep-21,5,5,25,25
10:34:47,30-Sep-21,5,5,25,25
10:34:47,30-Sep-21,5,5,25,25
10:34:47,30-Sep-21,5,5,25,25
10:34:47,30-Sep-21,5,5,25,25
10:34:47,30-Sep-21,5,5,25,25
10:34:47,30-Sep-21,5,5,25,25
10:34:47,30-Sep-21,5,5,25,25
10:34:47,30-Sep-21,5,5,25,25
10:34:47,30-Sep-21,5,5,25,25
10:34:47,30-Sep-21,5,5,25,25
10:34:47,30-Sep-21,5,5,25,25
10:34:47,30-Sep-21,5,5,25,25
10:34:47,30-Sep-21,5,5,25,25
10:34:47,30-Sep-21,5,5,25,25
10:34:47,30-Sep-21,5,5,25,25
10:34:47,30-Sep-21,5,5,25,25
10:34:47,30-Sep-21,5,5,25,25
10:34:47,30-Sep-21,5,5,25,25
10:34:47,30-Sep-21,5,5,25,25
10:34:47,30-Sep-21,5,5,25,25
10:34:47,30-Sep-21,5,5,25,25
10:34:47,30-Sep-21,5,5,25,25
10:34:47,30-Sep-21,5,5,25,25
10:34:47,30-Sep-21,5,5,25,25
10:34:47,30-Sep-21,5,5,25,25
10:34:47,30-Sep-21,5,5,25,25
10:34:47,30-Sep-21,5,5,25,25
10:34:47,30-Sep-21,5,5,25,25
10:34:47,30-Sep-21,5,5,25,25
10:34:47,30-Sep-21,5,5,25,25
10:34:47,30-Sep-21,5,5,25,25
10:34:47,30-Sep-21,5,5,25,25
10:34:47,30-Sep-21,5,5,25,25
10:34:47,30-Sep-21,5,5,25,25
10:34:47,30-Sep-21,5,5,25,25
10:34:47,30-Sep-21,5,5,25,25
10:34:47,30-Sep-21,5,5,25,25
10:34:47,30-Sep-21,5,5,25,25
10:34:47,30-Sep-21,5,5,25,25
10:34:47,30-Sep-21,5,5,25,25
10:34:47,30-Sep-21,5,5,25,25
10:34:47,30-Sep-21,5,5,25,25
10:34:47,30-Sep-21,5,5,25,25
10:34:47,30-Sep-21,5,5,25,25
10:34:47,30-Sep-21,5,5,25,25
10:34:47,30-Sep-21,5,5,25,25
10:34:47,30-Sep-21,5,5,25,25
10:34:47,30-Sep-21,5,5,25,25
10:34:47,30-Sep-21,5,5,25,25
10:34:47,30-Sep-21,5,5,25,25
10:34:47,30-Sep-21,5,5,25,25
10:34:47,30-Sep-21,5,5,25,25
10:34:47,30-Sep-21,5,5,25,25
10:34:47,30-Sep-21,5,5,25,25
10:34:47,30-Sep-21,5,5,25,25
10:34:47,30-Sep-21,5,5,25,25
10:34:47,30-Sep-21,5,5,25,25
10:34:47,30-Sep-21,5,5,25,25
10:34:47,30-Sep-21,5,5,25,25
10:34:47,30-Sep-21,5,5,25,25
10:34:47,30-Sep-21,5,5,25,25
10:34:47,30-Sep-21,5,5,25,25
10:34:47,30-Sep-21,5,5,25,25
10:34:47,30-Sep-21,5,5,25,25
10:34:47,30-Sep-21,5,5,25,25
10:34:47,30-Sep-21,5,5,25,25
10:34:47,30-Sep-21,5,5,25,25
10:34:47,30-Sep-21,5,5,25,25
10:34:47,30-Sep-21,5,5,25,25
10:34:47,30-Sep-21,5,5,25,25
10:34:47,30-Sep-21,5,5,25,25
10:34:47,30-Sep-21,5,5,25,25
10:34:47,30-Sep-21,5,5,25,25
10:34:47,30-Sep-21,5,5,25,25
10:34:48,30-Sep-21,5,5,25,25
10:34:48,30-Sep-21,5,5,25,25
10:34:48,30-Sep-21,5,5,25,25
10:34:48,30-Sep-21,5,5,25,25
10:34:48,30-Sep-21,5,5,25,25
10:34:48,30-Sep-21,5,5,25,25
10:34:48,30-Sep-21,5,5,25,25
10:34:48,30-Sep-21,5,5,25,25
10:34:48,30-Sep-21,5,5,25,25
10:34:48,30-Sep-21,5,5,25,25
10:34:48,30-Sep-21,5,5,25,25
10:34:48,30-Sep-21,5,5,25,25
10:34:48,30-Sep-21,5,5,25,25
10:34:48,30-Sep-21,5,5,25,25
10:34:48,30-Sep-21,5,5,25,25
10:34:48,30-Sep-21,5,5,25,25
10:34:48,30-Sep-21,5,5,25,25
10:34:48,30-Sep-21,5,5,25,25
10:34:48,30-Sep-21,5,5,25,25
10:34:48,30-Sep-21,5,5,25,25
10:34:48,30-Sep-21,5,5,25,25
10:34:48,30-Sep-21,5,5,25,25
10:34:48,30-Sep-21,5,5,25,25
10:34:48,30-Sep-21,5,5,25,25
10:34:48,30-Sep-21,5,5,25,25
10:34:48,30-Sep-21,5,5,25,25
10:34:48,30-Sep-21,5,5,25,25
10:34:48,30-Sep-21,5,5,25,25
10:34:48,30-Sep-21,5,5,25,25
10:34:48,30-Sep-21,5,5,25,25
10:34:48,30-Sep-21,5,5,25,25
10:34:48,30-Sep-21,5,5,25,25
10:34:48,30-Sep-21,5,5,25,25
10:34:48,30-Sep-21,5,5,25,25
10:34:48,30-Sep-21,5,5,25,25
10:34:48,30-Sep-21,5,5,25,25
10:34:48,30-Sep-21,5,5,25,25
10:34:48,30-Sep-21,5,5,25,25
10:34:48,30-Sep-21,5,5,25,25
10:34:48,30-Sep-21,5,5,25,25
10:34:48,30-Sep-21,5,5,25,25
10:34:48,30-Sep-21,5,5,25,25
10:34:48,30-Sep-21,5,5,25,25
10:34:48,30-Sep-21,5,5,25,25
10:34:48,30-Sep-21,5,5,25,25
10:34:48,30-Sep-21,5,5,25,25
10:34:48,30-Sep-21,5,5,25,25
10:34:48,30-Sep-21,5,5,25,25
10:34:48,30-Sep-21,5,5,25,25
10:34:48,30-Sep-21,5,5,25,25
10:34:48,30-Sep-21,5,5,25,25
10:34:48,30-Sep-21,5,5,25,25
10:34:48,30-Sep-21,5,5,25,25
10:34:48,30-Sep-21,5,5,25,25
10:34:48,30-Sep-21,5,5,25,25
10:34:48,30-Sep-21,5,5,25,25
10:34:48,30-Sep-21,5,5,25,25
10:34:48,30-Sep-21,5,5,25,25
10:34:48,30-Sep-21,5,5,25,25
10:34:48,30-Sep-21,5,5,25,25
10:34:48,30-Sep-21,5,5,25,25
10:34:48,30-Sep-21,5,5,25,25
10:34:48,30-Sep-21,5,5,25,25
10:34:48,30-Sep-21,5,5,25,25
10:34:48,30-Sep-21,5,5,25,25
10:34:48,30-Sep-21,5,5,25,25
10:34:48,30-Sep-21,5,5,25,25
10:34:48,30-Sep-21,5,5,25,25
10:34:48,30-Sep-21,5,5,25,25
10:34:48,30-Sep-21,5,5,25,25
10:34:48,30-Sep-21,5,5,25,25
10:34:48,30-Sep-21,5,5,25,25
10:34:48,30-Sep-21,5,5,25,25
10:34:48,30-Sep-21,5,5,25,25
10:34:48,30-Sep-21,5,5,25,25
10:34:48,30-Sep-21,5,5,25,25
10:34:48,30-Sep-21,5,5,25,25
10:34:48,30-Sep-21,5,5,25,25
10:34:48,30-Sep-21,5,5,25,25
10:34:48,30-Sep-21,5,5,25,25
10:34:48,30-Sep-21,5,5,25,25
10:34:48,30-Sep-21,5,5,25,25
10:34:48,30-Sep-21,5,5,25,25
10:34:48,30-Sep-21,5,5,25,25
10:34:48,30-Sep-21,5,5,25,25
10:34:48,30-Sep-21,5,5,25,25
10:34:48,30-Sep-21,5,5,25,25
10:34:48,30-Sep-21,5,5,25,25
10:34:48,30-Sep-21,5,5,25,25
10:34:48,30-Sep-21,5,5,25,25
10:34:48,30-Sep-21,5,5,25,25
10:34:48,30-Sep-21,5,5,25,25
10:34:48,30-Sep-21,5,5,25,25
10:34:49,30-Sep-21,5,5,25,25
10:34:49,30-Sep-21,5,5,25,25
10:34:49,30-Sep-21,5,5,25,25
10:34:49,30-Sep-21,5,5,25,25
10:34:49,30-Sep-21,5,5,25,25
10:34:49,30-Sep-21,5,5,25,25
10:34:49,30-Sep-21,5,5,25,25
10:34:49,30-Sep-21,5,5,25,25
10:34:49,30-Sep-21,5,5,25,25
10:34:49,30-Sep-21,5,5,25,25
10:34:49,30-Sep-21,5,5,25,25
10:34:49,30-Sep-21,5,5,25,25
10:34:49,30-Sep-21,5,5,25,25
10:34:49,30-Sep-21,5,5,25,25
10:34:49,30-Sep-21,5,5,25,25
10:34:49,30-Sep-21,5,5,25,25
10:34:49,30-Sep-21,5,5,25,25
10:34:49,30-Sep-21,5,5,25,25
10:34:49,30-Sep-21,5,5,25,25
10:34:49,30-Sep-21,5,5,25,25
10:34:49,30-Sep-21,5,5,25,25
10:34:49,30-Sep-21,5,5,25,25
10:34:49,30-Sep-21,5,5,25,25
10:34:49,30-Sep-21,5,5,25,25
10:34:49,30-Sep-21,5,5,25,25
10:34:49,30-Sep-21,5,5,25,25
10:34:49,30-Sep-21,5,5,25,25
10:34:49,30-Sep-21,5,5,25,25
10:34:49,30-Sep-21,5,5,25,25
10:34:49,30-Sep-21,5,5,25,25
10:34:49,30-Sep-21,5,5,25,25
10:34:49,30-Sep-21,5,5,25,25
10:34:49,30-Sep-21,5,5,25,25
10:34:49,30-Sep-21,5,5,25,25
10:34:49,30-Sep-21,5,5,25,25
10:34:49,30-Sep-21,5,5,25,25
10:34:49,30-Sep-21,5,5,25,25
10:34:49,30-Sep-21,5,5,25,25
10:34:49,30-Sep-21,5,5,25,25
10:34:49,30-Sep-21,5,5,25,25
10:34:49,30-Sep-21,5,5,25,25
10:34:49,30-Sep-21,5,5,25,25
10:34:49,30-Sep-21,5,5,25,25
10:34:49,30-Sep-21,5,5,25,25
10:34:49,30-Sep-21,5,5,25,25
10:34:49,30-Sep-21,5,5,25,25
10:34:49,30-Sep-21,5,5,25,25
10:34:49,30-Sep-21,5,5,25,25
10:34:49,30-Sep-21,5,5,25,25
10:34:49,30-Sep-21,5,5,25,25
10:34:49,30-Sep-21,5,5,25,25
10:34:49,30-Sep-21,5,5,25,25
10:34:49,30-Sep-21,5,5,25,25
10:34:49,30-Sep-21,5,5,25,25
10:34:49,30-Sep-21,5,5,25,25
10:34:49,30-Sep-21,5,5,25,25
10:34:49,30-Sep-21,5,5,25,25
10:34:49,30-Sep-21,5,5,25,25
10:34:49,30-Sep-21,5,5,25,25
10:34:49,30-Sep-21,5,5,25,25
10:34:49,30-Sep-21,5,5,25,25
10:34:49,30-Sep-21,5,5,25,25
10:34:49,30-Sep-21,5,5,25,25
10:34:49,30-Sep-21,5,5,25,25
10:34:49,30-Sep-21,5,5,25,25
10:34:49,30-Sep-21,5,5,25,25
10:34:49,30-Sep-21,5,5,25,25
10:34:49,30-Sep-21,5,5,25,25
10:34:49,30-Sep-21,5,5,25,25
10:34:49,30-Sep-21,5,5,25,25
10:34:49,30-Sep-21,5,5,25,25
10:34:49,30-Sep-21,5,5,25,25
10:34:49,30-Sep-21,5,5,25,25
10:34:49,30-Sep-21,5,5,25,25
10:34:49,30-Sep-21,5,5,25,25
10:34:49,30-Sep-21,5,5,25,25
10:34:49,30-Sep-21,5,5,25,25
10:34:49,30-Sep-21,5,5,25,25
10:34:49,30-Sep-21,5,5,25,25
10:34:49,30-Sep-21,5,5,25,25
10:34:49,30-Sep-21,5,5,25,25
10:34:49,30-Sep-21,5,5,25,25
10:34:49,30-Sep-21,5,5,25,25
10:34:49,30-Sep-21,5,5,25,25
10:34:49,30-Sep-21,5,5,25,25
10:34:49,30-Sep-21,5,5,25,25
10:34:49,30-Sep-21,5,5,25,25
10:34:49,30-Sep-21,5,5,25,25
10:34:49,30-Sep-21,5,5,25,25
10:34:49,30-Sep-21,5,5,25,25
10:34:49,30-Sep-21,5,5,25,25
10:34:49,30-Sep-21,5,5,25,25
10:34:49,30-Sep-21,5,5,25,25
10:34:49,30-Sep-21,5,5,25,25
10:34:49,30-Sep-21,5,5,25,25
10:34:49,30-Sep-21,5,5,25,25
10:34:49,30-Sep-21,5,5,25,25
10:34:50,30-Sep-21,5,5,25,25
10:34:50,30-Sep-21,5,5,25,25
10:34:50,30-Sep-21,5,5,25,25
10:34:50,30-Sep-21,5,5,25,25
10:34:50,30-Sep-21,5,5,25,25
10:34:50,30-Sep-21,5,5,25,25
10:34:50,30-Sep-21,5,5,25,25
10:34:50,30-Sep-21,5,5,25,25
10:34:50,30-Sep-21,5,5,25,25
10:34:50,30-Sep-21,5,5,25,25
10:34:50,30-Sep-21,5,5,25,25
10:34:50,30-Sep-21,5,5,25,25
10:34:50,30-Sep-21,5,5,25,25
10:34:50,30-Sep-21,5,5,25,25
10:34:50,30-Sep-21,5,5,25,25
10:34:50,30-Sep-21,5,5,25,25
10:34:50,30-Sep-21,5,5,25,25
10:34:50,30-Sep-21,5,5,25,25
10:34:50,30-Sep-21,5,5,25,25
10:34:50,30-Sep-21,5,5,25,25
10:34:50,30-Sep-21,5,5,25,25
10:34:50,30-Sep-21,5,5,25,25
10:34:50,30-Sep-21,5,5,25,25
10:34:50,30-Sep-21,5,5,25,25
10:34:50,30-Sep-21,5,5,25,25
10:34:50,30-Sep-21,5,5,25,25
10:34:50,30-Sep-21,5,5,25,25
10:34:50,30-Sep-21,5,5,25,25
10:34:50,30-Sep-21,5,5,25,25
10:34:50,30-Sep-21,5,5,25,25
10:34:50,30-Sep-21,5,5,25,25
10:34:50,30-Sep-21,5,5,25,25
10:34:50,30-Sep-21,5,5,25,25
10:34:50,30-Sep-21,5,5,25,25
10:34:50,30-Sep-21,5,5,25,25
10:34:50,30-Sep-21,5,5,25,25
10:34:50,30-Sep-21,5,5,25,25
10:34:50,30-Sep-21,5,5,25,25
10:34:50,30-Sep-21,5,5,25,25
10:34:50,30-Sep-21,5,5,25,25
10:34:50,30-Sep-21,5,5,25,25
10:34:50,30-Sep-21,5,5,25,25
10:34:50,30-Sep-21,5,5,25,25
10:34:50,30-Sep-21,5,5,25,25
10:34:50,30-Sep-21,5,5,25,25
10:34:50,30-Sep-21,5,5,25,25
10:34:50,30-Sep-21,5,5,25,25
10:34:50,30-Sep-21,5,5,25,25
10:34:50,30-Sep-21,5,5,25,25
10:34:50,30-Sep-21,5,5,25,25
10:34:50,30-Sep-21,5,5,25,25
10:34:50,30-Sep-21,5,5,25,25
10:34:50,30-Sep-21,5,5,25,25
10:34:50,30-Sep-21,5,5,25,25
10:34:50,30-Sep-21,5,5,25,25
10:34:50,30-Sep-21,5,5,25,25
10:34:50,30-Sep-21,5,5,25,25
10:34:50,30-Sep-21,5,5,25,25
10:34:50,30-Sep-21,5,5,25,25
10:34:50,30-Sep-21,5,5,25,25
10:34:50,30-Sep-21,5,5,25,25
10:34:50,30-Sep-21,5,5,25,25
10:34:50,30-Sep-21,5,5,25,25
10:34:50,30-Sep-21,5,5,25,25
10:34:50,30-Sep-21,5,5,25,25
10:34:50,30-Sep-21,5,5,25,25
10:34:50,30-Sep-21,5,5,25,25
10:34:50,30-Sep-21,5,5,25,25
10:34:50,30-Sep-21,5,5,25,25
10:34:50,30-Sep-21,5,5,25,25
10:34:50,30-Sep-21,5,5,25,25
10:34:50,30-Sep-21,5,5,25,25
10:34:50,30-Sep-21,5,5,25,25
10:34:50,30-Sep-21,5,5,25,25
10:34:50,30-Sep-21,5,5,25,25
10:34:50,30-Sep-21,5,5,25,25
10:34:50,30-Sep-21,5,5,25,25
10:34:50,30-Sep-21,5,5,25,25
10:34:50,30-Sep-21,5,5,25,25
10:34:50,30-Sep-21,5,5,25,25
10:34:50,30-Sep-21,5,5,25,25
10:34:50,30-Sep-21,5,5,25,25
10:34:50,30-Sep-21,5,5,25,25
10:34:50,30-Sep-21,5,5,25,25
10:34:50,30-Sep-21,5,5,25,25
10:34:50,30-Sep-21,5,5,25,25
10:34:50,30-Sep-21,5,5,25,25
10:34:50,30-Sep-21,5,5,25,25
10:34:50,30-Sep-21,5,5,25,25
10:34:50,30-Sep-21,5,5,25,25
10:34:50,30-Sep-21,5,5,25,25
10:34:50,30-Sep-21,5,5,25,25
10:34:50,30-Sep-21,5,5,25,25
10:34:50,30-Sep-21,5,5,25,25
10:34:50,30-Sep-21,5,5,25,25
10:34:50,30-Sep-21,5,5,25,25
10:34:50,30-Sep-21,5,5,25,25
10:34:50,30-Sep-21,5,5,25,25
10:34:50,30-Sep-21,5,5,25,25
10:34:50,30-Sep-21,5,5,25,25
10:34:50,30-Sep-21,5,5,25,25
10:34:50,30-Sep-21,5,5,25,25
10:34:50,30-Sep-21,5,5,25,25
10:34:50,30-Sep-21,5,5,25,25
10:34:50,30-Sep-21,5,5,25,25
10:34:50,30-Sep-21,5,5,25,25
10:34:51,30-Sep-21,5,5,25,25
10:34:51,30-Sep-21,5,5,25,25
10:34:51,30-Sep-21,5,5,25,25
10:34:51,30-Sep-21,5,5,25,25
10:34:51,30-Sep-21,5,5,25,25
10:34:51,30-Sep-21,5,5,25,25
10:34:51,30-Sep-21,5,5,25,25
10:34:51,30-Sep-21,5,5,25,25
10:34:51,30-Sep-21,5,5,25,25
10:34:51,30-Sep-21,5,5,25,25
10:34:51,30-Sep-21,5,5,25,25
10:34:51,30-Sep-21,5,5,25,25
10:34:51,30-Sep-21,5,5,25,25
10:34:51,30-Sep-21,5,5,25,25
10:34:51,30-Sep-21,5,5,25,25
10:34:51,30-Sep-21,5,5,25,25
10:34:51,30-Sep-21,5,5,25,25
10:34:51,30-Sep-21,5,5,25,25
10:34:51,30-Sep-21,5,5,25,25
10:34:51,30-Sep-21,5,5,25,25
10:34:51,30-Sep-21,5,5,25,25
10:34:51,30-Sep-21,5,5,25,25
10:34:51,30-Sep-21,5,5,25,25
10:34:51,30-Sep-21,5,5,25,25
10:34:51,30-Sep-21,5,5,25,25
10:34:51,30-Sep-21,5,5,25,25
10:34:51,30-Sep-21,5,5,25,25
10:34:51,30-Sep-21,5,5,25,25
10:34:51,30-Sep-21,5,5,25,25
10:34:51,30-Sep-21,5,5,25,25
10:34:51,30-Sep-21,5,5,25,25
10:34:51,30-Sep-21,5,5,25,25
10:34:51,30-Sep-21,5,5,25,25
10:34:51,30-Sep-21,5,5,25,25
10:34:51,30-Sep-21,5,5,25,25
10:34:51,30-Sep-21,5,5,25,25
10:34:51,30-Sep-21,5,5,25,25
10:34:51,30-Sep-21,5,5,25,25
10:34:51,30-Sep-21,5,5,25,25
10:34:51,30-Sep-21,5,5,25,25
10:34:51,30-Sep-21,5,5,25,25
10:34:51,30-Sep-21,5,5,25,25
10:34:51,30-Sep-21,5,5,25,25
10:34:51,30-Sep-21,5,5,25,25
10:34:51,30-Sep-21,5,5,25,25
10:34:51,30-Sep-21,5,5,25,25
10:34:51,30-Sep-21,5,5,25,25
10:34:51,30-Sep-21,5,5,25,25
10:34:51,30-Sep-21,5,5,25,25
10:34:51,30-Sep-21,5,5,25,25
10:34:51,30-Sep-21,5,5,25,25
10:34:51,30-Sep-21,5,5,25,25
10:34:51,30-Sep-21,5,5,25,25
10:34:51,30-Sep-21,5,5,25,25
10:34:51,30-Sep-21,5,5,25,25
10:34:51,30-Sep-21,5,5,25,25
10:34:51,30-Sep-21,5,5,25,25
10:34:51,30-Sep-21,5,5,25,25
10:34:51,30-Sep-21,5,5,25,25
10:34:51,30-Sep-21,5,5,25,25
10:34:51,30-Sep-21,5,5,25,25
10:34:51,30-Sep-21,5,5,25,25
10:34:51,30-Sep-21,5,5,25,25
10:34:51,30-Sep-21,5,5,25,25
10:34:51,30-Sep-21,5,5,25,25
10:34:51,30-Sep-21,5,5,25,25
10:34:51,30-Sep-21,5,5,25,25
10:34:51,30-Sep-21,5,5,25,25
10:34:51,30-Sep-21,5,5,25,25
10:34:51,30-Sep-21,5,5,25,25
10:34:51,30-Sep-21,5,5,25,25
10:34:51,30-Sep-21,5,5,25,25
10:34:51,30-Sep-21,5,5,25,25
10:34:51,30-Sep-21,5,5,25,25
10:34:51,30-Sep-21,5,5,25,25
10:34:51,30-Sep-21,5,5,25,25
10:34:51,30-Sep-21,5,5,25,25
10:34:51,30-Sep-21,5,5,25,25
10:34:51,30-Sep-21,5,5,25,25
10:34:51,30-Sep-21,5,5,25,25
10:34:51,30-Sep-21,5,5,25,25
10:34:51,30-Sep-21,5,5,25,25
10:34:51,30-Sep-21,5,5,25,25
10:34:51,30-Sep-21,5,5,25,25
10:34:51,30-Sep-21,5,5,25,25
10:34:51,30-Sep-21,5,5,25,25
10:34:51,30-Sep-21,5,5,25,25
10:34:51,30-Sep-21,5,5,25,25
10:34:51,30-Sep-21,5,5,25,25
10:34:51,30-Sep-21,5,5,25,25
10:34:51,30-Sep-21,5,5,25,25
10:34:51,30-Sep-21,5,5,25,25
10:34:51,30-Sep-21,5,5,25,25
10:34:51,30-Sep-21,5,5,25,25
10:34:51,30-Sep-21,5,5,25,25
10:34:51,30-Sep-21,5,5,25,25
10:34:51,30-Sep-21,5,5,25,25
10:34:51,30-Sep-21,5,5,25,25
10:34:51,30-Sep-21,5,5,25,25
10:34:51,30-Sep-21,5,5,25,25
10:34:51,30-Sep-21,5,5,25,25
10:34:51,30-Sep-21,5,5,25,25
10:34:51,30-Sep-21,5,5,25,25
10:34:51,30-Sep-21,5,5,25,25
10:34:51,30-Sep-21,5,5,25,25
10:34:51,30-Sep-21,5,5,25,25
10:34:51,30-Sep-21,5,5,25,25
10:34:51,30-Sep-21,5,5,25,25
10:34:51,30-Sep-21,5,5,25,25
10:34:51,30-Sep-21,5,5,25,25
10:34:51,30-Sep-21,5,5,25,25
10:34:51,30-Sep-21,5,5,25,25
10:34:51,30-Sep-21,5,5,25,25
10:34:51,30-Sep-21,5,5,25,25
10:34:51,30-Sep-21,5,5,25,25
10:34:52,30-Sep-21,5,5,25,25
10:34:52,30-Sep-21,5,5,25,25
10:34:52,30-Sep-21,5,5,25,25
10:34:52,30-Sep-21,5,5,25,25
10:34:52,30-Sep-21,5,5,25,25
10:34:52,30-Sep-21,5,5,25,25
10:34:52,30-Sep-21,5,5,25,25
10:34:52,30-Sep-21,5,5,25,25
10:34:52,30-Sep-21,5,5,25,25
10:34:52,30-Sep-21,5,5,25,25
10:34:52,30-Sep-21,5,5,25,25
10:34:52,30-Sep-21,5,5,25,25
10:34:52,30-Sep-21,5,5,25,25
10:34:52,30-Sep-21,5,5,25,25
10:34:52,30-Sep-21,5,5,25,25
10:34:52,30-Sep-21,5,5,25,25
10:34:52,30-Sep-21,5,5,25,25
10:34:52,30-Sep-21,5,5,25,25
10:34:52,30-Sep-21,5,5,25,25
10:34:52,30-Sep-21,5,5,25,25
10:34:52,30-Sep-21,5,5,25,25
10:34:52,30-Sep-21,5,5,25,25
10:34:52,30-Sep-21,5,5,25,25
10:34:52,30-Sep-21,5,5,25,25
10:34:52,30-Sep-21,5,5,25,25
10:34:52,30-Sep-21,5,5,25,25
10:34:52,30-Sep-21,5,5,25,25
10:34:52,30-Sep-21,5,5,25,25
10:34:52,30-Sep-21,5,5,25,25
10:34:52,30-Sep-21,5,5,25,25
10:34:52,30-Sep-21,5,5,25,25
10:34:52,30-Sep-21,5,5,25,25
10:34:52,30-Sep-21,5,5,25,25
10:34:52,30-Sep-21,5,5,25,25
10:34:52,30-Sep-21,5,5,25,25
10:34:52,30-Sep-21,5,5,25,25
