Time,Date,EMG Value (V),Filtered Value (V),,
10:15:00,30-Sep-21,0.704,0.703,0.495616,0.494209
10:15:00,30-Sep-21,0.694,0.702,0.481636,0.492804
10:15:00,30-Sep-21,0.694,0.701,0.481636,0.491401
10:15:00,30-Sep-21,0.694,0.699,0.481636,0.488601
10:15:00,30-Sep-21,0.694,0.698,0.481636,0.487204
10:15:00,30-Sep-21,0.699,0.697,0.488601,0.485809
10:15:00,30-Sep-21,0.699,0.695,0.488601,0.483025
10:15:00,30-Sep-21,0.699,0.693,0.488601,0.480249
10:15:00,30-Sep-21,0.699,0.691,0.488601,0.477481
10:15:00,30-Sep-21,0.699,0.69,0.488601,0.4761
10:15:00,30-Sep-21,0.7085,0.687,0.50197225,0.471969
10:15:00,30-Sep-21,0.7085,0.685,0.50197225,0.469225
10:15:00,30-Sep-21,0.7085,0.683,0.50197225,0.466489
10:15:00,30-Sep-21,0.7085,0.681,0.50197225,0.463761
10:15:00,30-Sep-21,0.699,0.678,0.488601,0.459684
10:15:00,30-Sep-21,0.699,0.676,0.488601,0.456976
10:15:00,30-Sep-21,0.699,0.673,0.488601,0.452929
10:15:00,30-Sep-21,0.6795,0.671,0.46172025,0.450241
10:15:00,30-Sep-21,0.6795,0.668,0.46172025,0.446224
10:15:00,30-Sep-21,0.6795,0.665,0.46172025,0.442225
10:15:00,30-Sep-21,0.6645,0.663,0.44156025,0.439569
10:15:00,30-Sep-21,0.6645,0.66,0.44156025,0.4356
10:15:00,30-Sep-21,0.6405,0.657,0.41024025,0.431649
10:15:00,30-Sep-21,0.6405,0.654,0.41024025,0.427716
10:15:00,30-Sep-21,0.6405,0.652,0.41024025,0.425104
10:15:00,30-Sep-21,0.6305,0.649,0.39753025,0.421201
10:15:00,30-Sep-21,0.6305,0.647,0.39753025,0.418609
10:15:00,30-Sep-21,0.6305,0.644,0.39753025,0.414736
10:15:00,30-Sep-21,0.616,0.642,0.379456,0.412164
10:15:00,30-Sep-21,0.616,0.639,0.379456,0.408321
10:15:00,30-Sep-21,0.611,0.637,0.373321,0.405769
10:15:00,30-Sep-21,0.611,0.635,0.373321,0.403225
10:15:00,30-Sep-21,0.611,0.633,0.373321,0.400689
10:15:00,30-Sep-21,0.6205,0.631,0.38502025,0.398161
10:15:00,30-Sep-21,0.6205,0.629,0.38502025,0.395641
10:15:00,30-Sep-21,0.6205,0.627,0.38502025,0.393129
10:15:00,30-Sep-21,0.6205,0.626,0.38502025,0.391876
10:15:00,30-Sep-21,0.6205,0.625,0.38502025,0.390625
10:15:00,30-Sep-21,0.6205,0.623,0.38502025,0.388129
10:15:00,30-Sep-21,0.6205,0.622,0.38502025,0.386884
10:15:00,30-Sep-21,0.6255,0.621,0.39125025,0.385641
10:15:00,30-Sep-21,0.6255,0.62,0.39125025,0.3844
10:15:00,30-Sep-21,0.6255,0.619,0.39125025,0.383161
10:15:00,30-Sep-21,0.6255,0.619,0.39125025,0.383161
10:15:00,30-Sep-21,0.6255,0.618,0.39125025,0.381924
10:15:00,30-Sep-21,0.6255,0.618,0.39125025,0.381924
10:15:00,30-Sep-21,0.6255,0.618,0.39125025,0.381924
10:15:00,30-Sep-21,0.6255,0.617,0.39125025,0.380689
10:15:00,30-Sep-21,0.6255,0.617,0.39125025,0.380689
10:15:00,30-Sep-21,0.6205,0.617,0.38502025,0.380689
10:15:00,30-Sep-21,0.6205,0.617,0.38502025,0.380689
10:15:00,30-Sep-21,0.6205,0.618,0.38502025,0.381924
10:15:00,30-Sep-21,0.616,0.618,0.379456,0.381924
10:15:00,30-Sep-21,0.616,0.619,0.379456,0.383161
10:15:00,30-Sep-21,0.616,0.619,0.379456,0.383161
10:15:00,30-Sep-21,0.616,0.62,0.379456,0.3844
10:15:00,30-Sep-21,0.616,0.62,0.379456,0.3844
10:15:00,30-Sep-21,0.616,0.621,0.379456,0.385641
10:15:00,30-Sep-21,0.616,0.622,0.379456,0.386884
10:15:00,30-Sep-21,0.6205,0.623,0.38502025,0.388129
10:15:00,30-Sep-21,0.6205,0.623,0.38502025,0.388129
10:15:00,30-Sep-21,0.6205,0.624,0.38502025,0.389376
10:15:00,30-Sep-21,0.6205,0.625,0.38502025,0.390625
10:15:00,30-Sep-21,0.6205,0.626,0.38502025,0.391876
10:15:00,30-Sep-21,0.6205,0.627,0.38502025,0.393129
10:15:00,30-Sep-21,0.6205,0.628,0.38502025,0.394384
10:15:00,30-Sep-21,0.6205,0.629,0.38502025,0.395641
10:15:00,30-Sep-21,0.6205,0.63,0.38502025,0.3969
10:15:00,30-Sep-21,0.6255,0.631,0.39125025,0.398161
10:15:00,30-Sep-21,0.6255,0.632,0.39125025,0.399424
10:15:00,30-Sep-21,0.6255,0.632,0.39125025,0.399424
10:15:00,30-Sep-21,0.6255,0.633,0.39125025,0.400689
10:15:00,30-Sep-21,0.6355,0.634,0.40386025,0.401956
10:15:00,30-Sep-21,0.6355,0.635,0.40386025,0.403225
10:15:00,30-Sep-21,0.6355,0.635,0.40386025,0.403225
10:15:00,30-Sep-21,0.6355,0.636,0.40386025,0.404496
10:15:00,30-Sep-21,0.65,0.636,0.4225,0.404496
10:15:00,30-Sep-21,0.65,0.636,0.4225,0.404496
10:15:00,30-Sep-21,0.65,0.636,0.4225,0.404496
10:15:00,30-Sep-21,0.65,0.637,0.4225,0.405769
10:15:00,30-Sep-21,0.65,0.637,0.4225,0.405769
10:15:00,30-Sep-21,0.65,0.636,0.4225,0.404496
10:15:00,30-Sep-21,0.65,0.636,0.4225,0.404496
10:15:00,30-Sep-21,0.65,0.636,0.4225,0.404496
10:15:00,30-Sep-21,0.65,0.635,0.4225,0.403225
10:15:00,30-Sep-21,0.65,0.635,0.4225,0.403225
10:15:00,30-Sep-21,0.65,0.634,0.4225,0.401956
10:15:00,30-Sep-21,0.65,0.634,0.4225,0.401956
10:15:00,30-Sep-21,0.65,0.633,0.4225,0.400689
10:15:00,30-Sep-21,0.645,0.632,0.416025,0.399424
10:15:00,30-Sep-21,0.645,0.631,0.416025,0.398161
10:15:00,30-Sep-21,0.645,0.63,0.416025,0.3969
10:15:00,30-Sep-21,0.6305,0.629,0.39753025,0.395641
10:15:00,30-Sep-21,0.6305,0.628,0.39753025,0.394384
10:15:00,30-Sep-21,0.6305,0.627,0.39753025,0.393129
10:15:00,30-Sep-21,0.6305,0.625,0.39753025,0.390625
10:15:00,30-Sep-21,0.616,0.624,0.379456,0.389376
10:15:00,30-Sep-21,0.616,0.623,0.379456,0.388129
10:15:00,30-Sep-21,0.616,0.622,0.379456,0.386884
10:15:00,30-Sep-21,0.616,0.62,0.379456,0.3844
10:15:00,30-Sep-21,0.616,0.619,0.379456,0.383161
10:15:00,30-Sep-21,0.601,0.618,0.361201,0.381924
10:15:00,30-Sep-21,0.601,0.617,0.361201,0.380689
10:15:00,30-Sep-21,0.601,0.616,0.361201,0.379456
10:15:00,30-Sep-21,0.601,0.615,0.361201,0.378225
10:15:00,30-Sep-21,0.601,0.614,0.361201,0.376996
10:15:00,30-Sep-21,0.601,0.613,0.361201,0.375769
10:15:00,30-Sep-21,0.601,0.612,0.361201,0.374544
10:15:00,30-Sep-21,0.601,0.611,0.361201,0.373321
10:15:00,30-Sep-21,0.601,0.611,0.361201,0.373321
10:15:00,30-Sep-21,0.601,0.61,0.361201,0.3721
10:15:01,30-Sep-21,0.5965,0.61,0.35581225,0.3721
10:15:01,30-Sep-21,0.5965,0.609,0.35581225,0.370881
10:15:01,30-Sep-21,0.5965,0.609,0.35581225,0.370881
10:15:01,30-Sep-21,0.5965,0.609,0.35581225,0.370881
10:15:01,30-Sep-21,0.5965,0.608,0.35581225,0.369664
10:15:01,30-Sep-21,0.5965,0.608,0.35581225,0.369664
10:15:01,30-Sep-21,0.5965,0.608,0.35581225,0.369664
10:15:01,30-Sep-21,0.5965,0.608,0.35581225,0.369664
10:15:01,30-Sep-21,0.5965,0.609,0.35581225,0.370881
10:15:01,30-Sep-21,0.606,0.609,0.367236,0.370881
10:15:01,30-Sep-21,0.606,0.609,0.367236,0.370881
10:15:01,30-Sep-21,0.606,0.609,0.367236,0.370881
10:15:01,30-Sep-21,0.616,0.61,0.379456,0.3721
10:15:01,30-Sep-21,0.616,0.61,0.379456,0.3721
10:15:01,30-Sep-21,0.616,0.611,0.379456,0.373321
10:15:01,30-Sep-21,0.6255,0.611,0.39125025,0.373321
10:15:01,30-Sep-21,0.6255,0.612,0.39125025,0.374544
10:15:01,30-Sep-21,0.6255,0.612,0.39125025,0.374544
10:15:01,30-Sep-21,0.6255,0.613,0.39125025,0.375769
10:15:01,30-Sep-21,0.6255,0.613,0.39125025,0.375769
10:15:01,30-Sep-21,0.6255,0.614,0.39125025,0.376996
10:15:01,30-Sep-21,0.6255,0.614,0.39125025,0.376996
10:15:01,30-Sep-21,0.6255,0.615,0.39125025,0.378225
10:15:01,30-Sep-21,0.6255,0.615,0.39125025,0.378225
10:15:01,30-Sep-21,0.6255,0.615,0.39125025,0.378225
10:15:01,30-Sep-21,0.6255,0.616,0.39125025,0.379456
10:15:01,30-Sep-21,0.6255,0.616,0.39125025,0.379456
10:15:01,30-Sep-21,0.6255,0.617,0.39125025,0.380689
10:15:01,30-Sep-21,0.6255,0.617,0.39125025,0.380689
10:15:01,30-Sep-21,0.6255,0.617,0.39125025,0.380689
10:15:01,30-Sep-21,0.6255,0.618,0.39125025,0.381924
10:15:01,30-Sep-21,0.6255,0.618,0.39125025,0.381924
10:15:01,30-Sep-21,0.616,0.618,0.379456,0.381924
10:15:01,30-Sep-21,0.616,0.618,0.379456,0.381924
10:15:01,30-Sep-21,0.616,0.619,0.379456,0.383161
10:15:01,30-Sep-21,0.616,0.619,0.379456,0.383161
10:15:01,30-Sep-21,0.616,0.619,0.379456,0.383161
10:15:01,30-Sep-21,0.616,0.619,0.379456,0.383161
10:15:01,30-Sep-21,0.616,0.619,0.379456,0.383161
10:15:01,30-Sep-21,0.616,0.62,0.379456,0.3844
10:15:01,30-Sep-21,0.616,0.62,0.379456,0.3844
10:15:01,30-Sep-21,0.616,0.62,0.379456,0.3844
10:15:01,30-Sep-21,0.616,0.62,0.379456,0.3844
10:15:01,30-Sep-21,0.616,0.62,0.379456,0.3844
10:15:01,30-Sep-21,0.616,0.62,0.379456,0.3844
10:15:01,30-Sep-21,0.616,0.621,0.379456,0.385641
10:15:01,30-Sep-21,0.616,0.621,0.379456,0.385641
10:15:01,30-Sep-21,0.616,0.621,0.379456,0.385641
10:15:01,30-Sep-21,0.616,0.621,0.379456,0.385641
10:15:01,30-Sep-21,0.616,0.622,0.379456,0.386884
10:15:01,30-Sep-21,0.616,0.622,0.379456,0.386884
10:15:01,30-Sep-21,0.616,0.622,0.379456,0.386884
10:15:01,30-Sep-21,0.616,0.623,0.379456,0.388129
10:15:01,30-Sep-21,0.616,0.623,0.379456,0.388129
10:15:01,30-Sep-21,0.616,0.624,0.379456,0.389376
10:15:01,30-Sep-21,0.6205,0.624,0.38502025,0.389376
10:15:01,30-Sep-21,0.6205,0.624,0.38502025,0.389376
10:15:01,30-Sep-21,0.6205,0.625,0.38502025,0.390625
10:15:01,30-Sep-21,0.6305,0.625,0.39753025,0.390625
10:15:01,30-Sep-21,0.6305,0.626,0.39753025,0.391876
10:15:01,30-Sep-21,0.6305,0.627,0.39753025,0.393129
10:15:01,30-Sep-21,0.6305,0.627,0.39753025,0.393129
10:15:01,30-Sep-21,0.6355,0.628,0.40386025,0.394384
10:15:01,30-Sep-21,0.6355,0.628,0.40386025,0.394384
10:15:01,30-Sep-21,0.6355,0.629,0.40386025,0.395641
10:15:01,30-Sep-21,0.6355,0.63,0.40386025,0.3969
10:15:01,30-Sep-21,0.6355,0.63,0.40386025,0.3969
10:15:01,30-Sep-21,0.6355,0.631,0.40386025,0.398161
10:15:01,30-Sep-21,0.6355,0.632,0.40386025,0.399424
10:15:01,30-Sep-21,0.6355,0.632,0.40386025,0.399424
10:15:01,30-Sep-21,0.6355,0.633,0.40386025,0.400689
10:15:01,30-Sep-21,0.6305,0.634,0.39753025,0.401956
10:15:01,30-Sep-21,0.6305,0.634,0.39753025,0.401956
10:15:01,30-Sep-21,0.6355,0.635,0.40386025,0.403225
10:15:01,30-Sep-21,0.6355,0.636,0.40386025,0.404496
10:15:01,30-Sep-21,0.6355,0.636,0.40386025,0.404496
10:15:01,30-Sep-21,0.6355,0.637,0.40386025,0.405769
10:15:01,30-Sep-21,0.6355,0.638,0.40386025,0.407044
10:15:01,30-Sep-21,0.6355,0.639,0.40386025,0.408321
10:15:01,30-Sep-21,0.6355,0.639,0.40386025,0.408321
10:15:01,30-Sep-21,0.6305,0.64,0.39753025,0.4096
10:15:01,30-Sep-21,0.6305,0.641,0.39753025,0.410881
10:15:01,30-Sep-21,0.6355,0.641,0.40386025,0.410881
10:15:01,30-Sep-21,0.6355,0.642,0.40386025,0.412164
10:15:01,30-Sep-21,0.6355,0.643,0.40386025,0.413449
10:15:01,30-Sep-21,0.6405,0.643,0.41024025,0.413449
10:15:01,30-Sep-21,0.6405,0.644,0.41024025,0.414736
10:15:01,30-Sep-21,0.6405,0.645,0.41024025,0.416025
10:15:01,30-Sep-21,0.6405,0.645,0.41024025,0.416025
10:15:01,30-Sep-21,0.65,0.646,0.4225,0.417316
10:15:01,30-Sep-21,0.65,0.647,0.4225,0.418609
10:15:01,30-Sep-21,0.66,0.647,0.4356,0.418609
10:15:01,30-Sep-21,0.66,0.648,0.4356,0.419904
10:15:01,30-Sep-21,0.66,0.648,0.4356,0.419904
10:15:01,30-Sep-21,0.66,0.649,0.4356,0.421201
10:15:01,30-Sep-21,0.66,0.649,0.4356,0.421201
10:15:01,30-Sep-21,0.66,0.65,0.4356,0.4225
10:15:01,30-Sep-21,0.66,0.65,0.4356,0.4225
10:15:01,30-Sep-21,0.66,0.651,0.4356,0.423801
10:15:01,30-Sep-21,0.66,0.651,0.4356,0.423801
10:15:01,30-Sep-21,0.66,0.651,0.4356,0.423801
10:15:01,30-Sep-21,0.66,0.652,0.4356,0.425104
10:15:01,30-Sep-21,0.655,0.652,0.429025,0.425104
10:15:01,30-Sep-21,0.655,0.653,0.429025,0.426409
10:15:01,30-Sep-21,0.645,0.653,0.416025,0.426409
10:15:01,30-Sep-21,0.645,0.653,0.416025,0.426409
10:15:01,30-Sep-21,0.645,0.654,0.416025,0.427716
10:15:01,30-Sep-21,0.645,0.654,0.416025,0.427716
10:15:01,30-Sep-21,0.645,0.654,0.416025,0.427716
10:15:01,30-Sep-21,0.6405,0.654,0.41024025,0.427716
10:15:01,30-Sep-21,0.6405,0.655,0.41024025,0.429025
10:15:01,30-Sep-21,0.6405,0.655,0.41024025,0.429025
10:15:01,30-Sep-21,0.6405,0.655,0.41024025,0.429025
10:15:01,30-Sep-21,0.645,0.656,0.416025,0.430336
10:15:01,30-Sep-21,0.645,0.656,0.416025,0.430336
10:15:01,30-Sep-21,0.645,0.656,0.416025,0.430336
10:15:01,30-Sep-21,0.655,0.657,0.429025,0.431649
10:15:01,30-Sep-21,0.655,0.657,0.429025,0.431649
10:15:01,30-Sep-21,0.6645,0.657,0.44156025,0.431649
10:15:01,30-Sep-21,0.6645,0.657,0.44156025,0.431649
10:15:01,30-Sep-21,0.6695,0.658,0.44823025,0.432964
10:15:01,30-Sep-21,0.6695,0.658,0.44823025,0.432964
10:15:01,30-Sep-21,0.6695,0.658,0.44823025,0.432964
10:15:01,30-Sep-21,0.6695,0.659,0.44823025,0.434281
10:15:01,30-Sep-21,0.6695,0.659,0.44823025,0.434281
10:15:01,30-Sep-21,0.6695,0.659,0.44823025,0.434281
10:15:01,30-Sep-21,0.6695,0.659,0.44823025,0.434281
10:15:01,30-Sep-21,0.6695,0.66,0.44823025,0.4356
10:15:01,30-Sep-21,0.6695,0.66,0.44823025,0.4356
10:15:01,30-Sep-21,0.6645,0.66,0.44156025,0.4356
10:15:01,30-Sep-21,0.6645,0.66,0.44156025,0.4356
10:15:01,30-Sep-21,0.66,0.661,0.4356,0.436921
10:15:01,30-Sep-21,0.66,0.661,0.4356,0.436921
10:15:01,30-Sep-21,0.66,0.661,0.4356,0.436921
10:15:01,30-Sep-21,0.65,0.661,0.4225,0.436921
10:15:01,30-Sep-21,0.65,0.662,0.4225,0.438244
10:15:01,30-Sep-21,0.65,0.662,0.4225,0.438244
10:15:01,30-Sep-21,0.65,0.662,0.4225,0.438244
10:15:01,30-Sep-21,0.65,0.662,0.4225,0.438244
10:15:01,30-Sep-21,0.65,0.663,0.4225,0.439569
10:15:01,30-Sep-21,0.65,0.663,0.4225,0.439569
10:15:01,30-Sep-21,0.65,0.663,0.4225,0.439569
10:15:01,30-Sep-21,0.65,0.663,0.4225,0.439569
10:15:01,30-Sep-21,0.655,0.664,0.429025,0.440896
10:15:01,30-Sep-21,0.655,0.664,0.429025,0.440896
10:15:01,30-Sep-21,0.6695,0.664,0.44823025,0.440896
10:15:01,30-Sep-21,0.6695,0.664,0.44823025,0.440896
10:15:01,30-Sep-21,0.6695,0.664,0.44823025,0.440896
10:15:01,30-Sep-21,0.6745,0.665,0.45495025,0.442225
10:15:01,30-Sep-21,0.6745,0.665,0.45495025,0.442225
10:15:01,30-Sep-21,0.6745,0.665,0.45495025,0.442225
10:15:01,30-Sep-21,0.6745,0.665,0.45495025,0.442225
10:15:01,30-Sep-21,0.6795,0.665,0.46172025,0.442225
10:15:01,30-Sep-21,0.6795,0.665,0.46172025,0.442225
10:15:01,30-Sep-21,0.6745,0.665,0.45495025,0.442225
10:15:01,30-Sep-21,0.6745,0.665,0.45495025,0.442225
10:15:01,30-Sep-21,0.6745,0.665,0.45495025,0.442225
10:15:01,30-Sep-21,0.6745,0.665,0.45495025,0.442225
10:15:01,30-Sep-21,0.6745,0.665,0.45495025,0.442225
10:15:01,30-Sep-21,0.6645,0.665,0.44156025,0.442225
10:15:01,30-Sep-21,0.6645,0.665,0.44156025,0.442225
10:15:01,30-Sep-21,0.6645,0.665,0.44156025,0.442225
10:15:01,30-Sep-21,0.6645,0.665,0.44156025,0.442225
10:15:01,30-Sep-21,0.66,0.665,0.4356,0.442225
10:15:01,30-Sep-21,0.66,0.665,0.4356,0.442225
10:15:01,30-Sep-21,0.655,0.665,0.429025,0.442225
10:15:01,30-Sep-21,0.655,0.665,0.429025,0.442225
10:15:01,30-Sep-21,0.65,0.664,0.4225,0.440896
10:15:01,30-Sep-21,0.65,0.664,0.4225,0.440896
10:15:02,30-Sep-21,0.66,0.664,0.4356,0.440896
10:15:02,30-Sep-21,0.66,0.664,0.4356,0.440896
10:15:02,30-Sep-21,0.66,0.664,0.4356,0.440896
10:15:02,30-Sep-21,0.66,0.664,0.4356,0.440896
10:15:02,30-Sep-21,0.66,0.664,0.4356,0.440896
10:15:02,30-Sep-21,0.66,0.664,0.4356,0.440896
10:15:02,30-Sep-21,0.66,0.664,0.4356,0.440896
10:15:02,30-Sep-21,0.6645,0.663,0.44156025,0.439569
10:15:02,30-Sep-21,0.6645,0.663,0.44156025,0.439569
10:15:02,30-Sep-21,0.6745,0.663,0.45495025,0.439569
10:15:02,30-Sep-21,0.6745,0.663,0.45495025,0.439569
10:15:02,30-Sep-21,0.6745,0.663,0.45495025,0.439569
10:15:02,30-Sep-21,0.6745,0.663,0.45495025,0.439569
10:15:02,30-Sep-21,0.6745,0.663,0.45495025,0.439569
10:15:02,30-Sep-21,0.6695,0.663,0.44823025,0.439569
10:15:02,30-Sep-21,0.6695,0.663,0.44823025,0.439569
10:15:02,30-Sep-21,0.6645,0.663,0.44156025,0.439569
10:15:02,30-Sep-21,0.6645,0.663,0.44156025,0.439569
10:15:02,30-Sep-21,0.6645,0.663,0.44156025,0.439569
10:15:02,30-Sep-21,0.6645,0.663,0.44156025,0.439569
10:15:02,30-Sep-21,0.6645,0.663,0.44156025,0.439569
10:15:02,30-Sep-21,0.66,0.663,0.4356,0.439569
10:15:02,30-Sep-21,0.66,0.663,0.4356,0.439569
10:15:02,30-Sep-21,0.655,0.664,0.429025,0.440896
10:15:02,30-Sep-21,0.655,0.664,0.429025,0.440896
10:15:02,30-Sep-21,0.65,0.664,0.4225,0.440896
10:15:02,30-Sep-21,0.65,0.664,0.4225,0.440896
10:15:02,30-Sep-21,0.65,0.664,0.4225,0.440896
10:15:02,30-Sep-21,0.655,0.664,0.429025,0.440896
10:15:02,30-Sep-21,0.655,0.665,0.429025,0.442225
10:15:02,30-Sep-21,0.655,0.665,0.429025,0.442225
10:15:02,30-Sep-21,0.655,0.665,0.429025,0.442225
10:15:02,30-Sep-21,0.655,0.665,0.429025,0.442225
10:15:02,30-Sep-21,0.655,0.666,0.429025,0.443556
10:15:02,30-Sep-21,0.655,0.666,0.429025,0.443556
10:15:02,30-Sep-21,0.6745,0.666,0.45495025,0.443556
10:15:02,30-Sep-21,0.6745,0.666,0.45495025,0.443556
10:15:02,30-Sep-21,0.6795,0.667,0.46172025,0.444889
10:15:02,30-Sep-21,0.6795,0.667,0.46172025,0.444889
10:15:02,30-Sep-21,0.6795,0.667,0.46172025,0.444889
10:15:02,30-Sep-21,0.6795,0.667,0.46172025,0.444889
10:15:02,30-Sep-21,0.6795,0.668,0.46172025,0.446224
10:15:02,30-Sep-21,0.6795,0.668,0.46172025,0.446224
10:15:02,30-Sep-21,0.6795,0.668,0.46172025,0.446224
10:15:02,30-Sep-21,0.6795,0.668,0.46172025,0.446224
10:15:02,30-Sep-21,0.6795,0.668,0.46172025,0.446224
10:15:02,30-Sep-21,0.6795,0.668,0.46172025,0.446224
10:15:02,30-Sep-21,0.6795,0.668,0.46172025,0.446224
10:15:02,30-Sep-21,0.6695,0.669,0.44823025,0.447561
10:15:02,30-Sep-21,0.6695,0.669,0.44823025,0.447561
10:15:02,30-Sep-21,0.6695,0.669,0.44823025,0.447561
10:15:02,30-Sep-21,0.6695,0.669,0.44823025,0.447561
10:15:02,30-Sep-21,0.6695,0.669,0.44823025,0.447561
10:15:02,30-Sep-21,0.6695,0.669,0.44823025,0.447561
10:15:02,30-Sep-21,0.6695,0.669,0.44823025,0.447561
10:15:02,30-Sep-21,0.6645,0.669,0.44156025,0.447561
10:15:02,30-Sep-21,0.6645,0.669,0.44156025,0.447561
10:15:02,30-Sep-21,0.6645,0.669,0.44156025,0.447561
10:15:02,30-Sep-21,0.66,0.669,0.4356,0.447561
10:15:02,30-Sep-21,0.66,0.669,0.4356,0.447561
10:15:02,30-Sep-21,0.66,0.669,0.4356,0.447561
10:15:02,30-Sep-21,0.66,0.669,0.4356,0.447561
10:15:02,30-Sep-21,0.66,0.669,0.4356,0.447561
10:15:02,30-Sep-21,0.66,0.669,0.4356,0.447561
10:15:02,30-Sep-21,0.66,0.669,0.4356,0.447561
10:15:02,30-Sep-21,0.66,0.669,0.4356,0.447561
10:15:02,30-Sep-21,0.66,0.669,0.4356,0.447561
10:15:02,30-Sep-21,0.66,0.669,0.4356,0.447561
10:15:02,30-Sep-21,0.6645,0.67,0.44156025,0.4489
10:15:02,30-Sep-21,0.6645,0.67,0.44156025,0.4489
10:15:02,30-Sep-21,0.6645,0.67,0.44156025,0.4489
10:15:02,30-Sep-21,0.6645,0.67,0.44156025,0.4489
10:15:02,30-Sep-21,0.6695,0.67,0.44823025,0.4489
10:15:02,30-Sep-21,0.6695,0.67,0.44823025,0.4489
10:15:02,30-Sep-21,0.6695,0.67,0.44823025,0.4489
10:15:02,30-Sep-21,0.6795,0.67,0.46172025,0.4489
10:15:02,30-Sep-21,0.6795,0.67,0.46172025,0.4489
10:15:02,30-Sep-21,0.6795,0.67,0.46172025,0.4489
10:15:02,30-Sep-21,0.6795,0.67,0.46172025,0.4489
10:15:02,30-Sep-21,0.6795,0.67,0.46172025,0.4489
10:15:02,30-Sep-21,0.6795,0.67,0.46172025,0.4489
10:15:02,30-Sep-21,0.6795,0.67,0.46172025,0.4489
10:15:02,30-Sep-21,0.6795,0.67,0.46172025,0.4489
10:15:02,30-Sep-21,0.6795,0.67,0.46172025,0.4489
10:15:02,30-Sep-21,0.6795,0.67,0.46172025,0.4489
10:15:02,30-Sep-21,0.6795,0.67,0.46172025,0.4489
10:15:02,30-Sep-21,0.6795,0.67,0.46172025,0.4489
10:15:02,30-Sep-21,0.6795,0.67,0.46172025,0.4489
10:15:02,30-Sep-21,0.6745,0.67,0.45495025,0.4489
10:15:02,30-Sep-21,0.6745,0.67,0.45495025,0.4489
10:15:02,30-Sep-21,0.6695,0.669,0.44823025,0.447561
10:15:02,30-Sep-21,0.6695,0.669,0.44823025,0.447561
10:15:02,30-Sep-21,0.6695,0.669,0.44823025,0.447561
10:15:02,30-Sep-21,0.6645,0.669,0.44156025,0.447561
10:15:02,30-Sep-21,0.6645,0.669,0.44156025,0.447561
10:15:02,30-Sep-21,0.6645,0.669,0.44156025,0.447561
10:15:02,30-Sep-21,0.6645,0.669,0.44156025,0.447561
10:15:02,30-Sep-21,0.6645,0.668,0.44156025,0.446224
10:15:02,30-Sep-21,0.66,0.668,0.4356,0.446224
10:15:02,30-Sep-21,0.66,0.668,0.4356,0.446224
10:15:02,30-Sep-21,0.655,0.668,0.429025,0.446224
10:15:02,30-Sep-21,0.655,0.668,0.429025,0.446224
10:15:02,30-Sep-21,0.655,0.668,0.429025,0.446224
10:15:02,30-Sep-21,0.655,0.668,0.429025,0.446224
10:15:02,30-Sep-21,0.655,0.668,0.429025,0.446224
10:15:02,30-Sep-21,0.655,0.668,0.429025,0.446224
10:15:02,30-Sep-21,0.655,0.668,0.429025,0.446224
10:15:02,30-Sep-21,0.6695,0.668,0.44823025,0.446224
10:15:02,30-Sep-21,0.6695,0.668,0.44823025,0.446224
10:15:02,30-Sep-21,0.6695,0.668,0.44823025,0.446224
10:15:02,30-Sep-21,0.6695,0.668,0.44823025,0.446224
10:15:02,30-Sep-21,0.6695,0.668,0.44823025,0.446224
10:15:02,30-Sep-21,0.6695,0.668,0.44823025,0.446224
10:15:02,30-Sep-21,0.6695,0.668,0.44823025,0.446224
10:15:02,30-Sep-21,0.6695,0.668,0.44823025,0.446224
10:15:02,30-Sep-21,0.6695,0.668,0.44823025,0.446224
10:15:02,30-Sep-21,0.6695,0.668,0.44823025,0.446224
10:15:02,30-Sep-21,0.6795,0.668,0.46172025,0.446224
10:15:02,30-Sep-21,0.6795,0.668,0.46172025,0.446224
10:15:02,30-Sep-21,0.6795,0.668,0.46172025,0.446224
10:15:02,30-Sep-21,0.6795,0.668,0.46172025,0.446224
10:15:02,30-Sep-21,0.6795,0.668,0.46172025,0.446224
10:15:02,30-Sep-21,0.6795,0.668,0.46172025,0.446224
10:15:02,30-Sep-21,0.6795,0.668,0.46172025,0.446224
10:15:02,30-Sep-21,0.6745,0.668,0.45495025,0.446224
10:15:02,30-Sep-21,0.6745,0.668,0.45495025,0.446224
10:15:02,30-Sep-21,0.6745,0.668,0.45495025,0.446224
10:15:02,30-Sep-21,0.6745,0.668,0.45495025,0.446224
10:15:02,30-Sep-21,0.6695,0.668,0.44823025,0.446224
10:15:02,30-Sep-21,0.6695,0.668,0.44823025,0.446224
10:15:02,30-Sep-21,0.6695,0.668,0.44823025,0.446224
10:15:02,30-Sep-21,0.6695,0.667,0.44823025,0.444889
10:15:02,30-Sep-21,0.6695,0.667,0.44823025,0.444889
10:15:02,30-Sep-21,0.6645,0.667,0.44156025,0.444889
10:15:02,30-Sep-21,0.6645,0.667,0.44156025,0.444889
10:15:02,30-Sep-21,0.6645,0.667,0.44156025,0.444889
10:15:02,30-Sep-21,0.655,0.667,0.429025,0.444889
10:15:02,30-Sep-21,0.655,0.667,0.429025,0.444889
10:15:02,30-Sep-21,0.655,0.667,0.429025,0.444889
10:15:02,30-Sep-21,0.655,0.666,0.429025,0.443556
10:15:02,30-Sep-21,0.655,0.666,0.429025,0.443556
10:15:02,30-Sep-21,0.655,0.666,0.429025,0.443556
10:15:02,30-Sep-21,0.655,0.666,0.429025,0.443556
10:15:02,30-Sep-21,0.655,0.666,0.429025,0.443556
10:15:02,30-Sep-21,0.655,0.666,0.429025,0.443556
10:15:02,30-Sep-21,0.655,0.666,0.429025,0.443556
10:15:02,30-Sep-21,0.655,0.666,0.429025,0.443556
10:15:02,30-Sep-21,0.655,0.666,0.429025,0.443556
10:15:02,30-Sep-21,0.6695,0.666,0.44823025,0.443556
10:15:02,30-Sep-21,0.6695,0.666,0.44823025,0.443556
10:15:02,30-Sep-21,0.6695,0.666,0.44823025,0.443556
10:15:02,30-Sep-21,0.6745,0.666,0.45495025,0.443556
10:15:02,30-Sep-21,0.6745,0.666,0.45495025,0.443556
10:15:02,30-Sep-21,0.6745,0.666,0.45495025,0.443556
10:15:02,30-Sep-21,0.6795,0.666,0.46172025,0.443556
10:15:02,30-Sep-21,0.6795,0.665,0.46172025,0.442225
10:15:02,30-Sep-21,0.6795,0.665,0.46172025,0.442225
10:15:02,30-Sep-21,0.6745,0.665,0.45495025,0.442225
10:15:02,30-Sep-21,0.6745,0.665,0.45495025,0.442225
10:15:02,30-Sep-21,0.6745,0.665,0.45495025,0.442225
10:15:02,30-Sep-21,0.6745,0.665,0.45495025,0.442225
10:15:02,30-Sep-21,0.6745,0.665,0.45495025,0.442225
10:15:02,30-Sep-21,0.6645,0.665,0.44156025,0.442225
10:15:02,30-Sep-21,0.6645,0.665,0.44156025,0.442225
10:15:02,30-Sep-21,0.6645,0.664,0.44156025,0.440896
10:15:02,30-Sep-21,0.6645,0.664,0.44156025,0.440896
10:15:02,30-Sep-21,0.6645,0.664,0.44156025,0.440896
10:15:02,30-Sep-21,0.6645,0.664,0.44156025,0.440896
10:15:02,30-Sep-21,0.6645,0.664,0.44156025,0.440896
10:15:02,30-Sep-21,0.6645,0.664,0.44156025,0.440896
10:15:02,30-Sep-21,0.6645,0.664,0.44156025,0.440896
10:15:02,30-Sep-21,0.66,0.664,0.4356,0.440896
10:15:02,30-Sep-21,0.66,0.664,0.4356,0.440896
10:15:02,30-Sep-21,0.66,0.663,0.4356,0.439569
10:15:02,30-Sep-21,0.66,0.663,0.4356,0.439569
10:15:02,30-Sep-21,0.66,0.663,0.4356,0.439569
10:15:02,30-Sep-21,0.655,0.663,0.429025,0.439569
10:15:02,30-Sep-21,0.655,0.663,0.429025,0.439569
10:15:02,30-Sep-21,0.655,0.663,0.429025,0.439569
10:15:02,30-Sep-21,0.655,0.663,0.429025,0.439569
10:15:02,30-Sep-21,0.65,0.663,0.4225,0.439569
10:15:02,30-Sep-21,0.65,0.664,0.4225,0.440896
10:15:02,30-Sep-21,0.65,0.664,0.4225,0.440896
10:15:02,30-Sep-21,0.65,0.664,0.4225,0.440896
10:15:02,30-Sep-21,0.65,0.664,0.4225,0.440896
10:15:03,30-Sep-21,0.655,0.664,0.429025,0.440896
10:15:03,30-Sep-21,0.655,0.664,0.429025,0.440896
10:15:03,30-Sep-21,0.6645,0.664,0.44156025,0.440896
10:15:03,30-Sep-21,0.6645,0.664,0.44156025,0.440896
10:15:03,30-Sep-21,0.6745,0.664,0.45495025,0.440896
10:15:03,30-Sep-21,0.6745,0.665,0.45495025,0.442225
10:15:03,30-Sep-21,0.6745,0.665,0.45495025,0.442225
10:15:03,30-Sep-21,0.6795,0.665,0.46172025,0.442225
10:15:03,30-Sep-21,0.6795,0.665,0.46172025,0.442225
10:15:03,30-Sep-21,0.6795,0.665,0.46172025,0.442225
10:15:03,30-Sep-21,0.6795,0.665,0.46172025,0.442225
10:15:03,30-Sep-21,0.6795,0.665,0.46172025,0.442225
10:15:03,30-Sep-21,0.6745,0.665,0.45495025,0.442225
10:15:03,30-Sep-21,0.6745,0.665,0.45495025,0.442225
10:15:03,30-Sep-21,0.6745,0.665,0.45495025,0.442225
10:15:03,30-Sep-21,0.6695,0.665,0.44823025,0.442225
10:15:03,30-Sep-21,0.6695,0.665,0.44823025,0.442225
10:15:03,30-Sep-21,0.6695,0.665,0.44823025,0.442225
10:15:03,30-Sep-21,0.6695,0.665,0.44823025,0.442225
10:15:03,30-Sep-21,0.6695,0.665,0.44823025,0.442225
10:15:03,30-Sep-21,0.66,0.665,0.4356,0.442225
10:15:03,30-Sep-21,0.66,0.665,0.4356,0.442225
10:15:03,30-Sep-21,0.66,0.665,0.4356,0.442225
10:15:03,30-Sep-21,0.655,0.665,0.429025,0.442225
10:15:03,30-Sep-21,0.655,0.665,0.429025,0.442225
10:15:03,30-Sep-21,0.655,0.665,0.429025,0.442225
10:15:03,30-Sep-21,0.655,0.665,0.429025,0.442225
10:15:03,30-Sep-21,0.65,0.664,0.4225,0.440896
10:15:03,30-Sep-21,0.65,0.664,0.4225,0.440896
10:15:03,30-Sep-21,0.655,0.664,0.429025,0.440896
10:15:03,30-Sep-21,0.655,0.664,0.429025,0.440896
10:15:03,30-Sep-21,0.655,0.664,0.429025,0.440896
10:15:03,30-Sep-21,0.66,0.664,0.4356,0.440896
10:15:03,30-Sep-21,0.66,0.664,0.4356,0.440896
10:15:03,30-Sep-21,0.66,0.663,0.4356,0.439569
10:15:03,30-Sep-21,0.66,0.663,0.4356,0.439569
10:15:03,30-Sep-21,0.66,0.663,0.4356,0.439569
10:15:03,30-Sep-21,0.6645,0.663,0.44156025,0.439569
10:15:03,30-Sep-21,0.6745,0.663,0.45495025,0.439569
10:15:03,30-Sep-21,0.6745,0.663,0.45495025,0.439569
10:15:03,30-Sep-21,0.6745,0.662,0.45495025,0.438244
10:15:03,30-Sep-21,0.6745,0.662,0.45495025,0.438244
10:15:03,30-Sep-21,0.6745,0.662,0.45495025,0.438244
10:15:03,30-Sep-21,0.6745,0.662,0.45495025,0.438244
10:15:03,30-Sep-21,0.6745,0.662,0.45495025,0.438244
10:15:03,30-Sep-21,0.6745,0.662,0.45495025,0.438244
10:15:03,30-Sep-21,0.6745,0.661,0.45495025,0.436921
10:15:03,30-Sep-21,0.6745,0.661,0.45495025,0.436921
10:15:03,30-Sep-21,0.6645,0.661,0.44156025,0.436921
10:15:03,30-Sep-21,0.6645,0.661,0.44156025,0.436921
10:15:03,30-Sep-21,0.6645,0.661,0.44156025,0.436921
10:15:03,30-Sep-21,0.6645,0.661,0.44156025,0.436921
10:15:03,30-Sep-21,0.6645,0.66,0.44156025,0.4356
10:15:03,30-Sep-21,0.6645,0.66,0.44156025,0.4356
10:15:03,30-Sep-21,0.65,0.66,0.4225,0.4356
10:15:03,30-Sep-21,0.65,0.66,0.4225,0.4356
10:15:03,30-Sep-21,0.65,0.66,0.4225,0.4356
10:15:03,30-Sep-21,0.65,0.66,0.4225,0.4356
10:15:03,30-Sep-21,0.65,0.66,0.4225,0.4356
10:15:03,30-Sep-21,0.65,0.66,0.4225,0.4356
10:15:03,30-Sep-21,0.65,0.661,0.4225,0.436921
10:15:03,30-Sep-21,0.65,0.661,0.4225,0.436921
10:15:03,30-Sep-21,0.65,0.661,0.4225,0.436921
10:15:03,30-Sep-21,0.65,0.661,0.4225,0.436921
10:15:03,30-Sep-21,0.655,0.661,0.429025,0.436921
10:15:03,30-Sep-21,0.655,0.662,0.429025,0.438244
10:15:03,30-Sep-21,0.655,0.662,0.429025,0.438244
10:15:03,30-Sep-21,0.655,0.663,0.429025,0.439569
10:15:03,30-Sep-21,0.655,0.663,0.429025,0.439569
10:15:03,30-Sep-21,0.655,0.663,0.429025,0.439569
10:15:03,30-Sep-21,0.655,0.664,0.429025,0.440896
10:15:03,30-Sep-21,0.655,0.664,0.429025,0.440896
10:15:03,30-Sep-21,0.6695,0.665,0.44823025,0.442225
10:15:03,30-Sep-21,0.6695,0.665,0.44823025,0.442225
10:15:03,30-Sep-21,0.6695,0.666,0.44823025,0.443556
10:15:03,30-Sep-21,0.6695,0.666,0.44823025,0.443556
10:15:03,30-Sep-21,0.6695,0.667,0.44823025,0.444889
10:15:03,30-Sep-21,0.6695,0.667,0.44823025,0.444889
10:15:03,30-Sep-21,0.6745,0.668,0.45495025,0.446224
10:15:03,30-Sep-21,0.6745,0.668,0.45495025,0.446224
10:15:03,30-Sep-21,0.6745,0.669,0.45495025,0.447561
10:15:03,30-Sep-21,0.6745,0.669,0.45495025,0.447561
10:15:03,30-Sep-21,0.6745,0.669,0.45495025,0.447561
10:15:03,30-Sep-21,0.6745,0.67,0.45495025,0.4489
10:15:03,30-Sep-21,0.6795,0.67,0.46172025,0.4489
10:15:03,30-Sep-21,0.6795,0.67,0.46172025,0.4489
10:15:03,30-Sep-21,0.6795,0.671,0.46172025,0.450241
10:15:03,30-Sep-21,0.6795,0.671,0.46172025,0.450241
10:15:03,30-Sep-21,0.6795,0.671,0.46172025,0.450241
10:15:03,30-Sep-21,0.6745,0.671,0.45495025,0.450241
10:15:03,30-Sep-21,0.6745,0.671,0.45495025,0.450241
10:15:03,30-Sep-21,0.6745,0.671,0.45495025,0.450241
10:15:03,30-Sep-21,0.6745,0.671,0.45495025,0.450241
10:15:03,30-Sep-21,0.6745,0.671,0.45495025,0.450241
10:15:03,30-Sep-21,0.6745,0.671,0.45495025,0.450241
10:15:03,30-Sep-21,0.6745,0.671,0.45495025,0.450241
10:15:03,30-Sep-21,0.6745,0.671,0.45495025,0.450241
10:15:03,30-Sep-21,0.6745,0.671,0.45495025,0.450241
10:15:03,30-Sep-21,0.6745,0.671,0.45495025,0.450241
10:15:03,30-Sep-21,0.6745,0.67,0.45495025,0.4489
10:15:03,30-Sep-21,0.6745,0.67,0.45495025,0.4489
10:15:03,30-Sep-21,0.6745,0.67,0.45495025,0.4489
10:15:03,30-Sep-21,0.6745,0.67,0.45495025,0.4489
10:15:03,30-Sep-21,0.6645,0.67,0.44156025,0.4489
10:15:03,30-Sep-21,0.6645,0.669,0.44156025,0.447561
10:15:03,30-Sep-21,0.6645,0.669,0.44156025,0.447561
10:15:03,30-Sep-21,0.6645,0.669,0.44156025,0.447561
10:15:03,30-Sep-21,0.6645,0.668,0.44156025,0.446224
10:15:03,30-Sep-21,0.655,0.668,0.429025,0.446224
10:15:03,30-Sep-21,0.655,0.668,0.429025,0.446224
10:15:03,30-Sep-21,0.655,0.668,0.429025,0.446224
10:15:03,30-Sep-21,0.655,0.667,0.429025,0.444889
10:15:03,30-Sep-21,0.655,0.667,0.429025,0.444889
10:15:03,30-Sep-21,0.655,0.667,0.429025,0.444889
10:15:03,30-Sep-21,0.655,0.667,0.429025,0.444889
10:15:03,30-Sep-21,0.655,0.667,0.429025,0.444889
10:15:03,30-Sep-21,0.66,0.666,0.4356,0.443556
10:15:03,30-Sep-21,0.66,0.666,0.4356,0.443556
10:15:03,30-Sep-21,0.66,0.666,0.4356,0.443556
10:15:03,30-Sep-21,0.6645,0.666,0.44156025,0.443556
10:15:03,30-Sep-21,0.6645,0.666,0.44156025,0.443556
10:15:03,30-Sep-21,0.6645,0.666,0.44156025,0.443556
10:15:03,30-Sep-21,0.6695,0.666,0.44823025,0.443556
10:15:03,30-Sep-21,0.6695,0.666,0.44823025,0.443556
10:15:03,30-Sep-21,0.6795,0.665,0.46172025,0.442225
10:15:03,30-Sep-21,0.6795,0.665,0.46172025,0.442225
10:15:03,30-Sep-21,0.6795,0.665,0.46172025,0.442225
10:15:03,30-Sep-21,0.6795,0.665,0.46172025,0.442225
10:15:03,30-Sep-21,0.6795,0.665,0.46172025,0.442225
10:15:03,30-Sep-21,0.6745,0.665,0.45495025,0.442225
10:15:03,30-Sep-21,0.6745,0.665,0.45495025,0.442225
10:15:03,30-Sep-21,0.6745,0.665,0.45495025,0.442225
10:15:03,30-Sep-21,0.6745,0.664,0.45495025,0.440896
10:15:03,30-Sep-21,0.6745,0.664,0.45495025,0.440896
10:15:03,30-Sep-21,0.6695,0.664,0.44823025,0.440896
10:15:03,30-Sep-21,0.6695,0.664,0.44823025,0.440896
10:15:03,30-Sep-21,0.6695,0.664,0.44823025,0.440896
10:15:03,30-Sep-21,0.66,0.664,0.4356,0.440896
10:15:03,30-Sep-21,0.66,0.664,0.4356,0.440896
10:15:03,30-Sep-21,0.66,0.664,0.4356,0.440896
10:15:03,30-Sep-21,0.655,0.664,0.429025,0.440896
10:15:03,30-Sep-21,0.655,0.663,0.429025,0.439569
10:15:03,30-Sep-21,0.655,0.663,0.429025,0.439569
10:15:03,30-Sep-21,0.655,0.663,0.429025,0.439569
10:15:03,30-Sep-21,0.655,0.663,0.429025,0.439569
10:15:03,30-Sep-21,0.65,0.663,0.4225,0.439569
10:15:03,30-Sep-21,0.65,0.663,0.4225,0.439569
10:15:03,30-Sep-21,0.65,0.663,0.4225,0.439569
10:15:03,30-Sep-21,0.65,0.663,0.4225,0.439569
10:15:03,30-Sep-21,0.65,0.663,0.4225,0.439569
10:15:03,30-Sep-21,0.65,0.663,0.4225,0.439569
10:15:03,30-Sep-21,0.65,0.663,0.4225,0.439569
10:15:03,30-Sep-21,0.65,0.663,0.4225,0.439569
10:15:03,30-Sep-21,0.6695,0.663,0.44823025,0.439569
10:15:03,30-Sep-21,0.6695,0.663,0.44823025,0.439569
10:15:03,30-Sep-21,0.6695,0.663,0.44823025,0.439569
10:15:03,30-Sep-21,0.6745,0.663,0.45495025,0.439569
10:15:03,30-Sep-21,0.6745,0.663,0.45495025,0.439569
10:15:03,30-Sep-21,0.6745,0.663,0.45495025,0.439569
10:15:03,30-Sep-21,0.6745,0.664,0.45495025,0.440896
10:15:03,30-Sep-21,0.6745,0.664,0.45495025,0.440896
10:15:03,30-Sep-21,0.6745,0.664,0.45495025,0.440896
10:15:03,30-Sep-21,0.6745,0.664,0.45495025,0.440896
10:15:03,30-Sep-21,0.6745,0.664,0.45495025,0.440896
10:15:03,30-Sep-21,0.6745,0.664,0.45495025,0.440896
10:15:03,30-Sep-21,0.6745,0.663,0.45495025,0.439569
10:15:03,30-Sep-21,0.6695,0.663,0.44823025,0.439569
10:15:03,30-Sep-21,0.6695,0.663,0.44823025,0.439569
10:15:03,30-Sep-21,0.6695,0.663,0.44823025,0.439569
10:15:03,30-Sep-21,0.6645,0.663,0.44156025,0.439569
10:15:03,30-Sep-21,0.6645,0.663,0.44156025,0.439569
10:15:03,30-Sep-21,0.6645,0.663,0.44156025,0.439569
10:15:03,30-Sep-21,0.655,0.663,0.429025,0.439569
10:15:03,30-Sep-21,0.655,0.663,0.429025,0.439569
10:15:03,30-Sep-21,0.655,0.663,0.429025,0.439569
10:15:03,30-Sep-21,0.655,0.663,0.429025,0.439569
10:15:03,30-Sep-21,0.655,0.663,0.429025,0.439569
10:15:03,30-Sep-21,0.655,0.663,0.429025,0.439569
10:15:03,30-Sep-21,0.655,0.663,0.429025,0.439569
10:15:03,30-Sep-21,0.65,0.663,0.4225,0.439569
10:15:03,30-Sep-21,0.65,0.663,0.4225,0.439569
10:15:03,30-Sep-21,0.65,0.663,0.4225,0.439569
10:15:03,30-Sep-21,0.655,0.663,0.429025,0.439569
10:15:03,30-Sep-21,0.655,0.662,0.429025,0.438244
10:15:03,30-Sep-21,0.655,0.662,0.429025,0.438244
10:15:04,30-Sep-21,0.66,0.662,0.4356,0.438244
10:15:04,30-Sep-21,0.66,0.662,0.4356,0.438244
10:15:04,30-Sep-21,0.66,0.662,0.4356,0.438244
10:15:04,30-Sep-21,0.66,0.662,0.4356,0.438244
10:15:04,30-Sep-21,0.6745,0.662,0.45495025,0.438244
10:15:04,30-Sep-21,0.6745,0.662,0.45495025,0.438244
10:15:04,30-Sep-21,0.6745,0.662,0.45495025,0.438244
10:15:04,30-Sep-21,0.6745,0.662,0.45495025,0.438244
10:15:04,30-Sep-21,0.6745,0.662,0.45495025,0.438244
10:15:04,30-Sep-21,0.6745,0.662,0.45495025,0.438244
10:15:04,30-Sep-21,0.6745,0.662,0.45495025,0.438244
10:15:04,30-Sep-21,0.6745,0.662,0.45495025,0.438244
10:15:04,30-Sep-21,0.6695,0.662,0.44823025,0.438244
10:15:04,30-Sep-21,0.6695,0.662,0.44823025,0.438244
10:15:04,30-Sep-21,0.6695,0.662,0.44823025,0.438244
10:15:04,30-Sep-21,0.66,0.662,0.4356,0.438244
10:15:04,30-Sep-21,0.66,0.662,0.4356,0.438244
10:15:04,30-Sep-21,0.66,0.662,0.4356,0.438244
10:15:04,30-Sep-21,0.66,0.662,0.4356,0.438244
10:15:04,30-Sep-21,0.66,0.662,0.4356,0.438244
10:15:04,30-Sep-21,0.655,0.662,0.429025,0.438244
10:15:04,30-Sep-21,0.655,0.662,0.429025,0.438244
10:15:04,30-Sep-21,0.655,0.662,0.429025,0.438244
10:15:04,30-Sep-21,0.655,0.662,0.429025,0.438244
10:15:04,30-Sep-21,0.655,0.662,0.429025,0.438244
10:15:04,30-Sep-21,0.65,0.662,0.4225,0.438244
10:15:04,30-Sep-21,0.65,0.662,0.4225,0.438244
10:15:04,30-Sep-21,0.65,0.662,0.4225,0.438244
10:15:04,30-Sep-21,0.65,0.662,0.4225,0.438244
10:15:04,30-Sep-21,0.65,0.662,0.4225,0.438244
10:15:04,30-Sep-21,0.65,0.663,0.4225,0.439569
10:15:04,30-Sep-21,0.6645,0.663,0.44156025,0.439569
10:15:04,30-Sep-21,0.6645,0.663,0.44156025,0.439569
10:15:04,30-Sep-21,0.6645,0.663,0.44156025,0.439569
10:15:04,30-Sep-21,0.6645,0.663,0.44156025,0.439569
10:15:04,30-Sep-21,0.6645,0.663,0.44156025,0.439569
10:15:04,30-Sep-21,0.6645,0.663,0.44156025,0.439569
10:15:04,30-Sep-21,0.6645,0.663,0.44156025,0.439569
10:15:04,30-Sep-21,0.6745,0.663,0.45495025,0.439569
10:15:04,30-Sep-21,0.6745,0.663,0.45495025,0.439569
10:15:04,30-Sep-21,0.6745,0.663,0.45495025,0.439569
10:15:04,30-Sep-21,0.6745,0.663,0.45495025,0.439569
10:15:04,30-Sep-21,0.6745,0.663,0.45495025,0.439569
10:15:04,30-Sep-21,0.6745,0.663,0.45495025,0.439569
10:15:04,30-Sep-21,0.6695,0.663,0.44823025,0.439569
10:15:04,30-Sep-21,0.6695,0.663,0.44823025,0.439569
10:15:04,30-Sep-21,0.6695,0.663,0.44823025,0.439569
10:15:04,30-Sep-21,0.6695,0.663,0.44823025,0.439569
10:15:04,30-Sep-21,0.6695,0.663,0.44823025,0.439569
10:15:04,30-Sep-21,0.6645,0.662,0.44156025,0.438244
10:15:04,30-Sep-21,0.6645,0.662,0.44156025,0.438244
10:15:04,30-Sep-21,0.6645,0.662,0.44156025,0.438244
10:15:04,30-Sep-21,0.6645,0.662,0.44156025,0.438244
10:15:04,30-Sep-21,0.6645,0.662,0.44156025,0.438244
10:15:04,30-Sep-21,0.655,0.662,0.429025,0.438244
10:15:04,30-Sep-21,0.655,0.662,0.429025,0.438244
10:15:04,30-Sep-21,0.65,0.662,0.4225,0.438244
10:15:04,30-Sep-21,0.65,0.661,0.4225,0.436921
10:15:04,30-Sep-21,0.65,0.661,0.4225,0.436921
10:15:04,30-Sep-21,0.65,0.661,0.4225,0.436921
10:15:04,30-Sep-21,0.65,0.661,0.4225,0.436921
10:15:04,30-Sep-21,0.65,0.661,0.4225,0.436921
10:15:04,30-Sep-21,0.65,0.661,0.4225,0.436921
10:15:04,30-Sep-21,0.65,0.661,0.4225,0.436921
10:15:04,30-Sep-21,0.65,0.661,0.4225,0.436921
10:15:04,30-Sep-21,0.65,0.66,0.4225,0.4356
10:15:04,30-Sep-21,0.65,0.66,0.4225,0.4356
10:15:04,30-Sep-21,0.6645,0.66,0.44156025,0.4356
10:15:04,30-Sep-21,0.6645,0.66,0.44156025,0.4356
10:15:04,30-Sep-21,0.6695,0.66,0.44823025,0.4356
10:15:04,30-Sep-21,0.6695,0.66,0.44823025,0.4356
10:15:04,30-Sep-21,0.6695,0.66,0.44823025,0.4356
10:15:04,30-Sep-21,0.6695,0.66,0.44823025,0.4356
10:15:04,30-Sep-21,0.6695,0.66,0.44823025,0.4356
10:15:04,30-Sep-21,0.6695,0.66,0.44823025,0.4356
10:15:04,30-Sep-21,0.6695,0.66,0.44823025,0.4356
10:15:04,30-Sep-21,0.6695,0.66,0.44823025,0.4356
10:15:04,30-Sep-21,0.6695,0.659,0.44823025,0.434281
10:15:04,30-Sep-21,0.6695,0.659,0.44823025,0.434281
10:15:04,30-Sep-21,0.6695,0.659,0.44823025,0.434281
10:15:04,30-Sep-21,0.6695,0.659,0.44823025,0.434281
10:15:04,30-Sep-21,0.6695,0.659,0.44823025,0.434281
10:15:04,30-Sep-21,0.655,0.659,0.429025,0.434281
10:15:04,30-Sep-21,0.655,0.659,0.429025,0.434281
10:15:04,30-Sep-21,0.655,0.659,0.429025,0.434281
10:15:04,30-Sep-21,0.655,0.659,0.429025,0.434281
10:15:04,30-Sep-21,0.655,0.659,0.429025,0.434281
10:15:04,30-Sep-21,0.655,0.659,0.429025,0.434281
10:15:04,30-Sep-21,0.655,0.659,0.429025,0.434281
10:15:04,30-Sep-21,0.655,0.659,0.429025,0.434281
10:15:04,30-Sep-21,0.645,0.659,0.416025,0.434281
10:15:04,30-Sep-21,0.645,0.659,0.416025,0.434281
10:15:04,30-Sep-21,0.645,0.659,0.416025,0.434281
10:15:04,30-Sep-21,0.645,0.659,0.416025,0.434281
10:15:04,30-Sep-21,0.645,0.659,0.416025,0.434281
10:15:04,30-Sep-21,0.65,0.659,0.4225,0.434281
10:15:04,30-Sep-21,0.65,0.659,0.4225,0.434281
10:15:04,30-Sep-21,0.65,0.659,0.4225,0.434281
10:15:04,30-Sep-21,0.655,0.659,0.429025,0.434281
10:15:04,30-Sep-21,0.655,0.659,0.429025,0.434281
10:15:04,30-Sep-21,0.655,0.659,0.429025,0.434281
10:15:04,30-Sep-21,0.655,0.659,0.429025,0.434281
10:15:04,30-Sep-21,0.6695,0.659,0.44823025,0.434281
10:15:04,30-Sep-21,0.6695,0.66,0.44823025,0.4356
10:15:04,30-Sep-21,0.6695,0.66,0.44823025,0.4356
10:15:04,30-Sep-21,0.6695,0.66,0.44823025,0.4356
10:15:04,30-Sep-21,0.6695,0.66,0.44823025,0.4356
10:15:04,30-Sep-21,0.6695,0.66,0.44823025,0.4356
10:15:04,30-Sep-21,0.6695,0.66,0.44823025,0.4356
10:15:04,30-Sep-21,0.6695,0.66,0.44823025,0.4356
10:15:04,30-Sep-21,0.6695,0.66,0.44823025,0.4356
10:15:04,30-Sep-21,0.6695,0.66,0.44823025,0.4356
10:15:04,30-Sep-21,0.6695,0.66,0.44823025,0.4356
10:15:04,30-Sep-21,0.6645,0.66,0.44156025,0.4356
10:15:04,30-Sep-21,0.6645,0.66,0.44156025,0.4356
10:15:04,30-Sep-21,0.6645,0.659,0.44156025,0.434281
10:15:04,30-Sep-21,0.6645,0.659,0.44156025,0.434281
10:15:04,30-Sep-21,0.6645,0.659,0.44156025,0.434281
10:15:04,30-Sep-21,0.6645,0.659,0.44156025,0.434281
10:15:04,30-Sep-21,0.6645,0.659,0.44156025,0.434281
10:15:04,30-Sep-21,0.6645,0.659,0.44156025,0.434281
10:15:04,30-Sep-21,0.655,0.659,0.429025,0.434281
10:15:04,30-Sep-21,0.655,0.659,0.429025,0.434281
10:15:04,30-Sep-21,0.655,0.659,0.429025,0.434281
10:15:04,30-Sep-21,0.65,0.658,0.4225,0.432964
10:15:04,30-Sep-21,0.65,0.658,0.4225,0.432964
10:15:04,30-Sep-21,0.645,0.658,0.416025,0.432964
10:15:04,30-Sep-21,0.645,0.658,0.416025,0.432964
10:15:04,30-Sep-21,0.645,0.658,0.416025,0.432964
10:15:04,30-Sep-21,0.645,0.658,0.416025,0.432964
10:15:04,30-Sep-21,0.645,0.658,0.416025,0.432964
10:15:04,30-Sep-21,0.645,0.658,0.416025,0.432964
10:15:04,30-Sep-21,0.645,0.658,0.416025,0.432964
10:15:04,30-Sep-21,0.645,0.658,0.416025,0.432964
10:15:04,30-Sep-21,0.655,0.658,0.429025,0.432964
10:15:04,30-Sep-21,0.655,0.658,0.429025,0.432964
10:15:04,30-Sep-21,0.655,0.658,0.429025,0.432964
10:15:04,30-Sep-21,0.655,0.658,0.429025,0.432964
10:15:04,30-Sep-21,0.66,0.658,0.4356,0.432964
10:15:04,30-Sep-21,0.66,0.658,0.4356,0.432964
10:15:04,30-Sep-21,0.66,0.658,0.4356,0.432964
10:15:04,30-Sep-21,0.66,0.658,0.4356,0.432964
10:15:04,30-Sep-21,0.6645,0.657,0.44156025,0.431649
10:15:04,30-Sep-21,0.6645,0.657,0.44156025,0.431649
10:15:04,30-Sep-21,0.6645,0.657,0.44156025,0.431649
10:15:04,30-Sep-21,0.6645,0.657,0.44156025,0.431649
10:15:04,30-Sep-21,0.6645,0.657,0.44156025,0.431649
10:15:04,30-Sep-21,0.6695,0.657,0.44823025,0.431649
10:15:04,30-Sep-21,0.6695,0.657,0.44823025,0.431649
10:15:04,30-Sep-21,0.6695,0.657,0.44823025,0.431649
10:15:04,30-Sep-21,0.6695,0.656,0.44823025,0.430336
10:15:04,30-Sep-21,0.6695,0.656,0.44823025,0.430336
10:15:04,30-Sep-21,0.6695,0.656,0.44823025,0.430336
10:15:04,30-Sep-21,0.6645,0.656,0.44156025,0.430336
10:15:04,30-Sep-21,0.6645,0.656,0.44156025,0.430336
10:15:04,30-Sep-21,0.6645,0.655,0.44156025,0.429025
10:15:04,30-Sep-21,0.66,0.655,0.4356,0.429025
10:15:04,30-Sep-21,0.66,0.655,0.4356,0.429025
10:15:04,30-Sep-21,0.655,0.655,0.429025,0.429025
10:15:04,30-Sep-21,0.655,0.654,0.429025,0.427716
10:15:04,30-Sep-21,0.655,0.654,0.429025,0.427716
10:15:04,30-Sep-21,0.6405,0.654,0.41024025,0.427716
10:15:04,30-Sep-21,0.6405,0.654,0.41024025,0.427716
10:15:04,30-Sep-21,0.6405,0.654,0.41024025,0.427716
10:15:04,30-Sep-21,0.6405,0.654,0.41024025,0.427716
10:15:04,30-Sep-21,0.6405,0.653,0.41024025,0.426409
10:15:04,30-Sep-21,0.6405,0.653,0.41024025,0.426409
10:15:04,30-Sep-21,0.6405,0.653,0.41024025,0.426409
10:15:04,30-Sep-21,0.6405,0.653,0.41024025,0.426409
10:15:04,30-Sep-21,0.6405,0.653,0.41024025,0.426409
10:15:04,30-Sep-21,0.6405,0.653,0.41024025,0.426409
10:15:04,30-Sep-21,0.6405,0.653,0.41024025,0.426409
10:15:04,30-Sep-21,0.645,0.653,0.416025,0.426409
10:15:04,30-Sep-21,0.645,0.653,0.416025,0.426409
10:15:04,30-Sep-21,0.645,0.653,0.416025,0.426409
10:15:04,30-Sep-21,0.65,0.653,0.4225,0.426409
10:15:04,30-Sep-21,0.65,0.653,0.4225,0.426409
10:15:04,30-Sep-21,0.65,0.654,0.4225,0.427716
10:15:05,30-Sep-21,0.65,0.654,0.4225,0.427716
10:15:05,30-Sep-21,0.6645,0.654,0.44156025,0.427716
10:15:05,30-Sep-21,0.6645,0.654,0.44156025,0.427716
10:15:05,30-Sep-21,0.6645,0.654,0.44156025,0.427716
10:15:05,30-Sep-21,0.6645,0.654,0.44156025,0.427716
10:15:05,30-Sep-21,0.6645,0.654,0.44156025,0.427716
10:15:05,30-Sep-21,0.6645,0.654,0.44156025,0.427716
10:15:05,30-Sep-21,0.6645,0.655,0.44156025,0.429025
10:15:05,30-Sep-21,0.6645,0.655,0.44156025,0.429025
10:15:05,30-Sep-21,0.6645,0.655,0.44156025,0.429025
10:15:05,30-Sep-21,0.6645,0.655,0.44156025,0.429025
10:15:05,30-Sep-21,0.6645,0.655,0.44156025,0.429025
10:15:05,30-Sep-21,0.6645,0.655,0.44156025,0.429025
10:15:05,30-Sep-21,0.6645,0.655,0.44156025,0.429025
10:15:05,30-Sep-21,0.6645,0.655,0.44156025,0.429025
10:15:05,30-Sep-21,0.6645,0.655,0.44156025,0.429025
10:15:05,30-Sep-21,0.6645,0.655,0.44156025,0.429025
10:15:05,30-Sep-21,0.655,0.655,0.429025,0.429025
10:15:05,30-Sep-21,0.655,0.655,0.429025,0.429025
10:15:05,30-Sep-21,0.655,0.655,0.429025,0.429025
10:15:05,30-Sep-21,0.655,0.655,0.429025,0.429025
10:15:05,30-Sep-21,0.655,0.655,0.429025,0.429025
10:15:05,30-Sep-21,0.655,0.655,0.429025,0.429025
10:15:05,30-Sep-21,0.65,0.655,0.4225,0.429025
10:15:05,30-Sep-21,0.65,0.655,0.4225,0.429025
10:15:05,30-Sep-21,0.65,0.655,0.4225,0.429025
10:15:05,30-Sep-21,0.6405,0.655,0.41024025,0.429025
10:15:05,30-Sep-21,0.6405,0.655,0.41024025,0.429025
10:15:05,30-Sep-21,0.6405,0.655,0.41024025,0.429025
10:15:05,30-Sep-21,0.6405,0.655,0.41024025,0.429025
10:15:05,30-Sep-21,0.645,0.655,0.416025,0.429025
10:15:05,30-Sep-21,0.645,0.655,0.416025,0.429025
10:15:05,30-Sep-21,0.645,0.655,0.416025,0.429025
10:15:05,30-Sep-21,0.65,0.655,0.4225,0.429025
10:15:05,30-Sep-21,0.65,0.655,0.4225,0.429025
10:15:05,30-Sep-21,0.65,0.655,0.4225,0.429025
10:15:05,30-Sep-21,0.65,0.656,0.4225,0.430336
10:15:05,30-Sep-21,0.65,0.656,0.4225,0.430336
10:15:05,30-Sep-21,0.65,0.656,0.4225,0.430336
10:15:05,30-Sep-21,0.65,0.656,0.4225,0.430336
10:15:05,30-Sep-21,0.655,0.656,0.429025,0.430336
10:15:05,30-Sep-21,0.655,0.656,0.429025,0.430336
10:15:05,30-Sep-21,0.655,0.657,0.429025,0.431649
10:15:05,30-Sep-21,0.66,0.657,0.4356,0.431649
10:15:05,30-Sep-21,0.66,0.657,0.4356,0.431649
10:15:05,30-Sep-21,0.66,0.657,0.4356,0.431649
10:15:05,30-Sep-21,0.6645,0.657,0.44156025,0.431649
10:15:05,30-Sep-21,0.6645,0.657,0.44156025,0.431649
10:15:05,30-Sep-21,0.6645,0.657,0.44156025,0.431649
10:15:05,30-Sep-21,0.6645,0.657,0.44156025,0.431649
10:15:05,30-Sep-21,0.6645,0.657,0.44156025,0.431649
10:15:05,30-Sep-21,0.6645,0.657,0.44156025,0.431649
10:15:05,30-Sep-21,0.6645,0.657,0.44156025,0.431649
10:15:05,30-Sep-21,0.6645,0.657,0.44156025,0.431649
10:15:05,30-Sep-21,0.6645,0.657,0.44156025,0.431649
10:15:05,30-Sep-21,0.6645,0.657,0.44156025,0.431649
10:15:05,30-Sep-21,0.6645,0.657,0.44156025,0.431649
10:15:05,30-Sep-21,0.6645,0.656,0.44156025,0.430336
10:15:05,30-Sep-21,0.6645,0.656,0.44156025,0.430336
10:15:05,30-Sep-21,0.6645,0.656,0.44156025,0.430336
10:15:05,30-Sep-21,0.6645,0.656,0.44156025,0.430336
10:15:05,30-Sep-21,0.66,0.655,0.4356,0.429025
10:15:05,30-Sep-21,0.66,0.655,0.4356,0.429025
10:15:05,30-Sep-21,0.66,0.655,0.4356,0.429025
10:15:05,30-Sep-21,0.66,0.654,0.4356,0.427716
10:15:05,30-Sep-21,0.66,0.654,0.4356,0.427716
10:15:05,30-Sep-21,0.65,0.654,0.4225,0.427716
10:15:05,30-Sep-21,0.65,0.653,0.4225,0.426409
10:15:05,30-Sep-21,0.65,0.653,0.4225,0.426409
10:15:05,30-Sep-21,0.65,0.653,0.4225,0.426409
10:15:05,30-Sep-21,0.65,0.652,0.4225,0.425104
10:15:05,30-Sep-21,0.65,0.652,0.4225,0.425104
10:15:05,30-Sep-21,0.645,0.652,0.416025,0.425104
10:15:05,30-Sep-21,0.645,0.652,0.416025,0.425104
10:15:05,30-Sep-21,0.645,0.651,0.416025,0.423801
10:15:05,30-Sep-21,0.645,0.651,0.416025,0.423801
10:15:05,30-Sep-21,0.645,0.651,0.416025,0.423801
10:15:05,30-Sep-21,0.6405,0.651,0.41024025,0.423801
10:15:05,30-Sep-21,0.6405,0.651,0.41024025,0.423801
10:15:05,30-Sep-21,0.6405,0.651,0.41024025,0.423801
10:15:05,30-Sep-21,0.6405,0.651,0.41024025,0.423801
10:15:05,30-Sep-21,0.6405,0.651,0.41024025,0.423801
10:15:05,30-Sep-21,0.6405,0.651,0.41024025,0.423801
10:15:05,30-Sep-21,0.6405,0.651,0.41024025,0.423801
10:15:05,30-Sep-21,0.6405,0.652,0.41024025,0.425104
10:15:05,30-Sep-21,0.6405,0.652,0.41024025,0.425104
10:15:05,30-Sep-21,0.6405,0.652,0.41024025,0.425104
10:15:05,30-Sep-21,0.6405,0.653,0.41024025,0.426409
10:15:05,30-Sep-21,0.645,0.653,0.416025,0.426409
10:15:05,30-Sep-21,0.645,0.653,0.416025,0.426409
10:15:05,30-Sep-21,0.645,0.654,0.416025,0.427716
10:15:05,30-Sep-21,0.6645,0.654,0.44156025,0.427716
10:15:05,30-Sep-21,0.6645,0.654,0.44156025,0.427716
10:15:05,30-Sep-21,0.6645,0.655,0.44156025,0.429025
10:15:05,30-Sep-21,0.6645,0.655,0.44156025,0.429025
10:15:05,30-Sep-21,0.6645,0.655,0.44156025,0.429025
10:15:05,30-Sep-21,0.6645,0.656,0.44156025,0.430336
10:15:05,30-Sep-21,0.6645,0.656,0.44156025,0.430336
10:15:05,30-Sep-21,0.6695,0.656,0.44823025,0.430336
10:15:05,30-Sep-21,0.6695,0.657,0.44823025,0.431649
10:15:05,30-Sep-21,0.6695,0.657,0.44823025,0.431649
10:15:05,30-Sep-21,0.6695,0.657,0.44823025,0.431649
10:15:05,30-Sep-21,0.6695,0.657,0.44823025,0.431649
10:15:05,30-Sep-21,0.6695,0.657,0.44823025,0.431649
10:15:05,30-Sep-21,0.6695,0.657,0.44823025,0.431649
10:15:05,30-Sep-21,0.6695,0.657,0.44823025,0.431649
10:15:05,30-Sep-21,0.66,0.657,0.4356,0.431649
10:15:05,30-Sep-21,0.66,0.658,0.4356,0.432964
10:15:05,30-Sep-21,0.66,0.657,0.4356,0.431649
10:15:05,30-Sep-21,0.66,0.657,0.4356,0.431649
10:15:05,30-Sep-21,0.655,0.657,0.429025,0.431649
10:15:05,30-Sep-21,0.655,0.657,0.429025,0.431649
10:15:05,30-Sep-21,0.655,0.657,0.429025,0.431649
10:15:05,30-Sep-21,0.655,0.657,0.429025,0.431649
10:15:05,30-Sep-21,0.655,0.657,0.429025,0.431649
10:15:05,30-Sep-21,0.655,0.657,0.429025,0.431649
10:15:05,30-Sep-21,0.655,0.656,0.429025,0.430336
10:15:05,30-Sep-21,0.655,0.656,0.429025,0.430336
10:15:05,30-Sep-21,0.655,0.656,0.429025,0.430336
10:15:05,30-Sep-21,0.645,0.656,0.416025,0.430336
10:15:05,30-Sep-21,0.645,0.656,0.416025,0.430336
10:15:05,30-Sep-21,0.645,0.655,0.416025,0.429025
10:15:05,30-Sep-21,0.645,0.655,0.416025,0.429025
10:15:05,30-Sep-21,0.645,0.655,0.416025,0.429025
10:15:05,30-Sep-21,0.645,0.655,0.416025,0.429025
10:15:05,30-Sep-21,0.645,0.654,0.416025,0.427716
10:15:05,30-Sep-21,0.645,0.654,0.416025,0.427716
10:15:05,30-Sep-21,0.645,0.654,0.416025,0.427716
10:15:05,30-Sep-21,0.645,0.654,0.416025,0.427716
10:15:05,30-Sep-21,0.645,0.654,0.416025,0.427716
10:15:05,30-Sep-21,0.645,0.653,0.416025,0.426409
10:15:05,30-Sep-21,0.645,0.653,0.416025,0.426409
10:15:05,30-Sep-21,0.655,0.653,0.429025,0.426409
10:15:05,30-Sep-21,0.655,0.653,0.429025,0.426409
10:15:05,30-Sep-21,0.6645,0.653,0.44156025,0.426409
10:15:05,30-Sep-21,0.6645,0.652,0.44156025,0.425104
10:15:05,30-Sep-21,0.6645,0.652,0.44156025,0.425104
10:15:05,30-Sep-21,0.6645,0.652,0.44156025,0.425104
10:15:05,30-Sep-21,0.6645,0.652,0.44156025,0.425104
10:15:05,30-Sep-21,0.6645,0.652,0.44156025,0.425104
10:15:05,30-Sep-21,0.66,0.651,0.4356,0.423801
10:15:05,30-Sep-21,0.66,0.651,0.4356,0.423801
10:15:05,30-Sep-21,0.66,0.651,0.4356,0.423801
10:15:05,30-Sep-21,0.66,0.651,0.4356,0.423801
10:15:05,30-Sep-21,0.66,0.651,0.4356,0.423801
10:15:05,30-Sep-21,0.66,0.651,0.4356,0.423801
10:15:05,30-Sep-21,0.66,0.65,0.4356,0.4225
10:15:05,30-Sep-21,0.65,0.65,0.4225,0.4225
10:15:05,30-Sep-21,0.65,0.65,0.4225,0.4225
10:15:05,30-Sep-21,0.65,0.65,0.4225,0.4225
10:15:05,30-Sep-21,0.645,0.65,0.416025,0.4225
10:15:05,30-Sep-21,0.645,0.65,0.416025,0.4225
10:15:05,30-Sep-21,0.645,0.649,0.416025,0.421201
10:15:05,30-Sep-21,0.6405,0.649,0.41024025,0.421201
10:15:05,30-Sep-21,0.6405,0.649,0.41024025,0.421201
10:15:05,30-Sep-21,0.6355,0.649,0.40386025,0.421201
10:15:05,30-Sep-21,0.6355,0.649,0.40386025,0.421201
10:15:05,30-Sep-21,0.6355,0.649,0.40386025,0.421201
10:15:05,30-Sep-21,0.6355,0.649,0.40386025,0.421201
10:15:05,30-Sep-21,0.6355,0.649,0.40386025,0.421201
10:15:05,30-Sep-21,0.6355,0.65,0.40386025,0.4225
10:15:05,30-Sep-21,0.6355,0.65,0.40386025,0.4225
10:15:05,30-Sep-21,0.6355,0.65,0.40386025,0.4225
10:15:05,30-Sep-21,0.65,0.65,0.4225,0.4225
10:15:05,30-Sep-21,0.65,0.65,0.4225,0.4225
10:15:05,30-Sep-21,0.655,0.65,0.429025,0.4225
10:15:05,30-Sep-21,0.655,0.651,0.429025,0.423801
10:15:05,30-Sep-21,0.6645,0.651,0.44156025,0.423801
10:15:05,30-Sep-21,0.6645,0.651,0.44156025,0.423801
10:15:05,30-Sep-21,0.6645,0.651,0.44156025,0.423801
10:15:05,30-Sep-21,0.6645,0.652,0.44156025,0.425104
10:15:05,30-Sep-21,0.6645,0.652,0.44156025,0.425104
10:15:05,30-Sep-21,0.66,0.652,0.4356,0.425104
10:15:05,30-Sep-21,0.66,0.653,0.4356,0.426409
10:15:05,30-Sep-21,0.66,0.653,0.4356,0.426409
10:15:05,30-Sep-21,0.66,0.653,0.4356,0.426409
10:15:05,30-Sep-21,0.66,0.654,0.4356,0.427716
10:15:05,30-Sep-21,0.66,0.654,0.4356,0.427716
10:15:05,30-Sep-21,0.66,0.654,0.4356,0.427716
10:15:05,30-Sep-21,0.655,0.655,0.429025,0.429025
10:15:05,30-Sep-21,0.655,0.655,0.429025,0.429025
10:15:05,30-Sep-21,0.655,0.655,0.429025,0.429025
10:15:05,30-Sep-21,0.65,0.656,0.4225,0.430336
10:15:05,30-Sep-21,0.65,0.656,0.4225,0.430336
10:15:05,30-Sep-21,0.65,0.657,0.4225,0.431649
10:15:05,30-Sep-21,0.645,0.657,0.416025,0.431649
10:15:05,30-Sep-21,0.65,0.658,0.4225,0.432964
10:15:05,30-Sep-21,0.65,0.658,0.4225,0.432964
10:15:05,30-Sep-21,0.65,0.658,0.4225,0.432964
10:15:05,30-Sep-21,0.65,0.659,0.4225,0.434281
10:15:05,30-Sep-21,0.65,0.659,0.4225,0.434281
10:15:05,30-Sep-21,0.65,0.66,0.4225,0.4356
10:15:05,30-Sep-21,0.65,0.661,0.4225,0.436921
10:15:05,30-Sep-21,0.6645,0.661,0.44156025,0.436921
10:15:05,30-Sep-21,0.6645,0.662,0.44156025,0.438244
10:15:05,30-Sep-21,0.6695,0.662,0.44823025,0.438244
10:15:06,30-Sep-21,0.6695,0.663,0.44823025,0.439569
10:15:06,30-Sep-21,0.6695,0.663,0.44823025,0.439569
10:15:06,30-Sep-21,0.6745,0.664,0.45495025,0.440896
10:15:06,30-Sep-21,0.6745,0.665,0.45495025,0.442225
10:15:06,30-Sep-21,0.6745,0.665,0.45495025,0.442225
10:15:06,30-Sep-21,0.6745,0.666,0.45495025,0.443556
10:15:06,30-Sep-21,0.6745,0.666,0.45495025,0.443556
10:15:06,30-Sep-21,0.6745,0.667,0.45495025,0.444889
10:15:06,30-Sep-21,0.6745,0.668,0.45495025,0.446224
10:15:06,30-Sep-21,0.6745,0.668,0.45495025,0.446224
10:15:06,30-Sep-21,0.6745,0.669,0.45495025,0.447561
10:15:06,30-Sep-21,0.6645,0.67,0.44156025,0.4489
10:15:06,30-Sep-21,0.6645,0.67,0.44156025,0.4489
10:15:06,30-Sep-21,0.6645,0.671,0.44156025,0.450241
10:15:06,30-Sep-21,0.66,0.672,0.4356,0.451584
10:15:06,30-Sep-21,0.66,0.672,0.4356,0.451584
10:15:06,30-Sep-21,0.66,0.673,0.4356,0.452929
10:15:06,30-Sep-21,0.66,0.674,0.4356,0.454276
10:15:06,30-Sep-21,0.6645,0.674,0.44156025,0.454276
10:15:06,30-Sep-21,0.6645,0.675,0.44156025,0.455625
10:15:06,30-Sep-21,0.6645,0.676,0.44156025,0.456976
10:15:06,30-Sep-21,0.6745,0.677,0.45495025,0.458329
10:15:06,30-Sep-21,0.6745,0.677,0.45495025,0.458329
10:15:06,30-Sep-21,0.689,0.678,0.474721,0.459684
10:15:06,30-Sep-21,0.689,0.679,0.474721,0.461041
10:15:06,30-Sep-21,0.689,0.68,0.474721,0.4624
10:15:06,30-Sep-21,0.689,0.68,0.474721,0.4624
10:15:06,30-Sep-21,0.689,0.681,0.474721,0.463761
10:15:06,30-Sep-21,0.689,0.682,0.474721,0.465124
10:15:06,30-Sep-21,0.694,0.682,0.481636,0.465124
10:15:06,30-Sep-21,0.694,0.683,0.481636,0.466489
10:15:06,30-Sep-21,0.689,0.684,0.474721,0.467856
10:15:06,30-Sep-21,0.689,0.685,0.474721,0.469225
10:15:06,30-Sep-21,0.689,0.685,0.474721,0.469225
10:15:06,30-Sep-21,0.6795,0.686,0.46172025,0.470596
10:15:06,30-Sep-21,0.6795,0.687,0.46172025,0.471969
10:15:06,30-Sep-21,0.6795,0.687,0.46172025,0.471969
10:15:06,30-Sep-21,0.6795,0.688,0.46172025,0.473344
10:15:06,30-Sep-21,0.6745,0.689,0.45495025,0.474721
10:15:06,30-Sep-21,0.6745,0.689,0.45495025,0.474721
10:15:06,30-Sep-21,0.689,0.69,0.474721,0.4761
10:15:06,30-Sep-21,0.689,0.69,0.474721,0.4761
10:15:06,30-Sep-21,0.694,0.691,0.481636,0.477481
10:15:06,30-Sep-21,0.694,0.692,0.481636,0.478864
10:15:06,30-Sep-21,0.699,0.692,0.488601,0.478864
10:15:06,30-Sep-21,0.704,0.693,0.495616,0.480249
10:15:06,30-Sep-21,0.704,0.693,0.495616,0.480249
10:15:06,30-Sep-21,0.704,0.694,0.495616,0.481636
10:15:06,30-Sep-21,0.704,0.694,0.495616,0.481636
10:15:06,30-Sep-21,0.694,0.695,0.481636,0.483025
10:15:06,30-Sep-21,0.694,0.695,0.481636,0.483025
10:15:06,30-Sep-21,0.6845,0.695,0.46854025,0.483025
10:15:06,30-Sep-21,0.6845,0.696,0.46854025,0.484416
10:15:06,30-Sep-21,0.6845,0.696,0.46854025,0.484416
10:15:06,30-Sep-21,0.6845,0.696,0.46854025,0.484416
10:15:06,30-Sep-21,0.6845,0.697,0.46854025,0.485809
10:15:06,30-Sep-21,0.6845,0.697,0.46854025,0.485809
10:15:06,30-Sep-21,0.6845,0.697,0.46854025,0.485809
10:15:06,30-Sep-21,0.689,0.697,0.474721,0.485809
10:15:06,30-Sep-21,0.689,0.698,0.474721,0.487204
10:15:06,30-Sep-21,0.699,0.698,0.488601,0.487204
10:15:06,30-Sep-21,0.699,0.698,0.488601,0.487204
10:15:06,30-Sep-21,0.7135,0.698,0.50908225,0.487204
10:15:06,30-Sep-21,0.7135,0.698,0.50908225,0.487204
10:15:06,30-Sep-21,0.7135,0.698,0.50908225,0.487204
10:15:06,30-Sep-21,0.7185,0.698,0.51624225,0.487204
10:15:06,30-Sep-21,0.7185,0.698,0.51624225,0.487204
10:15:06,30-Sep-21,0.7135,0.698,0.50908225,0.487204
10:15:06,30-Sep-21,0.7135,0.698,0.50908225,0.487204
10:15:06,30-Sep-21,0.7135,0.698,0.50908225,0.487204
10:15:06,30-Sep-21,0.699,0.698,0.488601,0.487204
10:15:06,30-Sep-21,0.699,0.697,0.488601,0.485809
10:15:06,30-Sep-21,0.694,0.697,0.481636,0.485809
10:15:06,30-Sep-21,0.694,0.697,0.481636,0.485809
10:15:06,30-Sep-21,0.694,0.697,0.481636,0.485809
10:15:06,30-Sep-21,0.6845,0.696,0.46854025,0.484416
10:15:06,30-Sep-21,0.6845,0.696,0.46854025,0.484416
10:15:06,30-Sep-21,0.6845,0.696,0.46854025,0.484416
10:15:06,30-Sep-21,0.6845,0.695,0.46854025,0.483025
10:15:06,30-Sep-21,0.6845,0.695,0.46854025,0.483025
10:15:06,30-Sep-21,0.6845,0.695,0.46854025,0.483025
10:15:06,30-Sep-21,0.6845,0.694,0.46854025,0.481636
10:15:06,30-Sep-21,0.6845,0.694,0.46854025,0.481636
10:15:06,30-Sep-21,0.6845,0.694,0.46854025,0.481636
10:15:06,30-Sep-21,0.6845,0.693,0.46854025,0.480249
10:15:06,30-Sep-21,0.694,0.693,0.481636,0.480249
10:15:06,30-Sep-21,0.699,0.693,0.488601,0.480249
10:15:06,30-Sep-21,0.699,0.692,0.488601,0.478864
10:15:06,30-Sep-21,0.699,0.692,0.488601,0.478864
10:15:06,30-Sep-21,0.704,0.692,0.495616,0.478864
10:15:06,30-Sep-21,0.704,0.691,0.495616,0.477481
10:15:06,30-Sep-21,0.704,0.691,0.495616,0.477481
10:15:06,30-Sep-21,0.699,0.691,0.488601,0.477481
10:15:06,30-Sep-21,0.699,0.69,0.488601,0.4761
10:15:06,30-Sep-21,0.694,0.69,0.481636,0.4761
10:15:06,30-Sep-21,0.694,0.69,0.481636,0.4761
10:15:06,30-Sep-21,0.694,0.689,0.481636,0.474721
10:15:06,30-Sep-21,0.694,0.689,0.481636,0.474721
10:15:06,30-Sep-21,0.6845,0.689,0.46854025,0.474721
10:15:06,30-Sep-21,0.6845,0.689,0.46854025,0.474721
10:15:06,30-Sep-21,0.6845,0.688,0.46854025,0.473344
10:15:06,30-Sep-21,0.6845,0.688,0.46854025,0.473344
10:15:06,30-Sep-21,0.6845,0.688,0.46854025,0.473344
10:15:06,30-Sep-21,0.6845,0.688,0.46854025,0.473344
10:15:06,30-Sep-21,0.6795,0.688,0.46172025,0.473344
10:15:06,30-Sep-21,0.6795,0.688,0.46172025,0.473344
10:15:06,30-Sep-21,0.6795,0.688,0.46172025,0.473344
10:15:06,30-Sep-21,0.6745,0.687,0.45495025,0.471969
10:15:06,30-Sep-21,0.6745,0.687,0.45495025,0.471969
10:15:06,30-Sep-21,0.6745,0.687,0.45495025,0.471969
10:15:06,30-Sep-21,0.6795,0.687,0.46172025,0.471969
10:15:06,30-Sep-21,0.6795,0.687,0.46172025,0.471969
10:15:06,30-Sep-21,0.6795,0.688,0.46172025,0.473344
10:15:06,30-Sep-21,0.6795,0.688,0.46172025,0.473344
10:15:06,30-Sep-21,0.6795,0.688,0.46172025,0.473344
10:15:06,30-Sep-21,0.694,0.688,0.481636,0.473344
10:15:06,30-Sep-21,0.694,0.688,0.481636,0.473344
10:15:06,30-Sep-21,0.694,0.688,0.481636,0.473344
10:15:06,30-Sep-21,0.699,0.688,0.488601,0.473344
10:15:06,30-Sep-21,0.699,0.688,0.488601,0.473344
10:15:07,30-Sep-21,0.699,0.688,0.488601,0.473344
10:15:07,30-Sep-21,0.699,0.688,0.488601,0.473344
10:15:07,30-Sep-21,0.699,0.688,0.488601,0.473344
10:15:07,30-Sep-21,0.699,0.688,0.488601,0.473344
10:15:07,30-Sep-21,0.699,0.688,0.488601,0.473344
10:15:07,30-Sep-21,0.699,0.688,0.488601,0.473344
10:15:07,30-Sep-21,0.694,0.688,0.481636,0.473344
10:15:07,30-Sep-21,0.694,0.688,0.481636,0.473344
10:15:07,30-Sep-21,0.689,0.688,0.474721,0.473344
10:15:07,30-Sep-21,0.689,0.688,0.474721,0.473344
10:15:07,30-Sep-21,0.6845,0.688,0.46854025,0.473344
10:15:07,30-Sep-21,0.6845,0.688,0.46854025,0.473344
10:15:07,30-Sep-21,0.6745,0.688,0.45495025,0.473344
10:15:07,30-Sep-21,0.6745,0.688,0.45495025,0.473344
10:15:07,30-Sep-21,0.6745,0.687,0.45495025,0.471969
10:15:07,30-Sep-21,0.6745,0.687,0.45495025,0.471969
10:15:07,30-Sep-21,0.6745,0.687,0.45495025,0.471969
10:15:07,30-Sep-21,0.6795,0.687,0.46172025,0.471969
10:15:07,30-Sep-21,0.6795,0.687,0.46172025,0.471969
10:15:07,30-Sep-21,0.6845,0.686,0.46854025,0.470596
10:15:07,30-Sep-21,0.694,0.686,0.481636,0.470596
10:15:07,30-Sep-21,0.694,0.686,0.481636,0.470596
10:15:07,30-Sep-21,0.694,0.686,0.481636,0.470596
10:15:07,30-Sep-21,0.694,0.685,0.481636,0.469225
10:15:07,30-Sep-21,0.694,0.685,0.481636,0.469225
10:15:07,30-Sep-21,0.694,0.685,0.481636,0.469225
10:15:07,30-Sep-21,0.694,0.684,0.481636,0.467856
10:15:07,30-Sep-21,0.694,0.684,0.481636,0.467856
10:15:07,30-Sep-21,0.689,0.683,0.474721,0.466489
10:15:07,30-Sep-21,0.689,0.683,0.474721,0.466489
10:15:07,30-Sep-21,0.689,0.683,0.474721,0.466489
10:15:07,30-Sep-21,0.6845,0.682,0.46854025,0.465124
10:15:07,30-Sep-21,0.6845,0.682,0.46854025,0.465124
10:15:07,30-Sep-21,0.6845,0.681,0.46854025,0.463761
10:15:07,30-Sep-21,0.6745,0.681,0.45495025,0.463761
10:15:07,30-Sep-21,0.6745,0.681,0.45495025,0.463761
10:15:07,30-Sep-21,0.6745,0.68,0.45495025,0.4624
10:15:07,30-Sep-21,0.6745,0.68,0.45495025,0.4624
10:15:07,30-Sep-21,0.6745,0.679,0.45495025,0.461041
10:15:07,30-Sep-21,0.6745,0.679,0.45495025,0.461041
10:15:07,30-Sep-21,0.6695,0.679,0.44823025,0.461041
10:15:07,30-Sep-21,0.6645,0.678,0.44156025,0.459684
10:15:07,30-Sep-21,0.6645,0.678,0.44156025,0.459684
10:15:07,30-Sep-21,0.6645,0.678,0.44156025,0.459684
10:15:07,30-Sep-21,0.6645,0.677,0.44156025,0.458329
10:15:07,30-Sep-21,0.6645,0.677,0.44156025,0.458329
10:15:07,30-Sep-21,0.6795,0.677,0.46172025,0.458329
10:15:07,30-Sep-21,0.6795,0.676,0.46172025,0.456976
10:15:07,30-Sep-21,0.6845,0.676,0.46854025,0.456976
10:15:07,30-Sep-21,0.6845,0.676,0.46854025,0.456976
10:15:07,30-Sep-21,0.689,0.676,0.474721,0.456976
10:15:07,30-Sep-21,0.689,0.675,0.474721,0.455625
10:15:07,30-Sep-21,0.6845,0.675,0.46854025,0.455625
10:15:07,30-Sep-21,0.6845,0.675,0.46854025,0.455625
10:15:07,30-Sep-21,0.6795,0.675,0.46172025,0.455625
10:15:07,30-Sep-21,0.6795,0.675,0.46172025,0.455625
10:15:07,30-Sep-21,0.6795,0.675,0.46172025,0.455625
10:15:07,30-Sep-21,0.6795,0.674,0.46172025,0.454276
10:15:07,30-Sep-21,0.6745,0.674,0.45495025,0.454276
10:15:07,30-Sep-21,0.6745,0.674,0.45495025,0.454276
10:15:07,30-Sep-21,0.6745,0.674,0.45495025,0.454276
10:15:07,30-Sep-21,0.6645,0.674,0.44156025,0.454276
10:15:07,30-Sep-21,0.6645,0.674,0.44156025,0.454276
10:15:07,30-Sep-21,0.6645,0.674,0.44156025,0.454276
10:15:07,30-Sep-21,0.6645,0.674,0.44156025,0.454276
10:15:07,30-Sep-21,0.6645,0.674,0.44156025,0.454276
10:15:07,30-Sep-21,0.6645,0.674,0.44156025,0.454276
10:15:07,30-Sep-21,0.6645,0.674,0.44156025,0.454276
10:15:07,30-Sep-21,0.6645,0.674,0.44156025,0.454276
10:15:07,30-Sep-21,0.6645,0.674,0.44156025,0.454276
10:15:07,30-Sep-21,0.6645,0.674,0.44156025,0.454276
10:15:07,30-Sep-21,0.6645,0.674,0.44156025,0.454276
10:15:07,30-Sep-21,0.6845,0.674,0.46854025,0.454276
10:15:07,30-Sep-21,0.6845,0.674,0.46854025,0.454276
10:15:07,30-Sep-21,0.6845,0.674,0.46854025,0.454276
10:15:07,30-Sep-21,0.6845,0.674,0.46854025,0.454276
10:15:07,30-Sep-21,0.6845,0.674,0.46854025,0.454276
10:15:07,30-Sep-21,0.6845,0.674,0.46854025,0.454276
10:15:07,30-Sep-21,0.6845,0.674,0.46854025,0.454276
10:15:07,30-Sep-21,0.6845,0.675,0.46854025,0.455625
10:15:07,30-Sep-21,0.6845,0.675,0.46854025,0.455625
10:15:07,30-Sep-21,0.6845,0.675,0.46854025,0.455625
10:15:07,30-Sep-21,0.6845,0.675,0.46854025,0.455625
10:15:07,30-Sep-21,0.6845,0.675,0.46854025,0.455625
10:15:07,30-Sep-21,0.6795,0.675,0.46172025,0.455625
10:15:07,30-Sep-21,0.6795,0.675,0.46172025,0.455625
10:15:07,30-Sep-21,0.6745,0.675,0.45495025,0.455625
10:15:07,30-Sep-21,0.6695,0.675,0.44823025,0.455625
10:15:07,30-Sep-21,0.6695,0.675,0.44823025,0.455625
10:15:07,30-Sep-21,0.66,0.675,0.4356,0.455625
10:15:07,30-Sep-21,0.66,0.675,0.4356,0.455625
10:15:07,30-Sep-21,0.66,0.675,0.4356,0.455625
10:15:07,30-Sep-21,0.66,0.675,0.4356,0.455625
10:15:07,30-Sep-21,0.66,0.675,0.4356,0.455625
10:15:07,30-Sep-21,0.6645,0.675,0.44156025,0.455625
10:15:07,30-Sep-21,0.6645,0.675,0.44156025,0.455625
10:15:07,30-Sep-21,0.6645,0.676,0.44156025,0.456976
10:15:07,30-Sep-21,0.6745,0.676,0.45495025,0.456976
10:15:07,30-Sep-21,0.6845,0.676,0.46854025,0.456976
10:15:07,30-Sep-21,0.6845,0.676,0.46854025,0.456976
10:15:07,30-Sep-21,0.689,0.676,0.474721,0.456976
10:15:07,30-Sep-21,0.689,0.676,0.474721,0.456976
10:15:07,30-Sep-21,0.689,0.676,0.474721,0.456976
10:15:07,30-Sep-21,0.689,0.676,0.474721,0.456976
10:15:07,30-Sep-21,0.6845,0.676,0.46854025,0.456976
10:15:07,30-Sep-21,0.6845,0.676,0.46854025,0.456976
10:15:07,30-Sep-21,0.6845,0.676,0.46854025,0.456976
10:15:07,30-Sep-21,0.6795,0.676,0.46172025,0.456976
10:15:07,30-Sep-21,0.6795,0.677,0.46172025,0.458329
10:15:07,30-Sep-21,0.6695,0.677,0.44823025,0.458329
10:15:07,30-Sep-21,0.6695,0.677,0.44823025,0.458329
10:15:07,30-Sep-21,0.6695,0.677,0.44823025,0.458329
10:15:07,30-Sep-21,0.6695,0.677,0.44823025,0.458329
10:15:07,30-Sep-21,0.6645,0.677,0.44156025,0.458329
10:15:07,30-Sep-21,0.6645,0.677,0.44156025,0.458329
10:15:07,30-Sep-21,0.6645,0.677,0.44156025,0.458329
10:15:07,30-Sep-21,0.6645,0.677,0.44156025,0.458329
10:15:07,30-Sep-21,0.6795,0.677,0.46172025,0.458329
10:15:07,30-Sep-21,0.6795,0.677,0.46172025,0.458329
10:15:07,30-Sep-21,0.6845,0.677,0.46854025,0.458329
10:15:07,30-Sep-21,0.6845,0.677,0.46854025,0.458329
10:15:08,30-Sep-21,0.689,0.677,0.474721,0.458329
10:15:08,30-Sep-21,0.689,0.678,0.474721,0.459684
10:15:08,30-Sep-21,0.689,0.678,0.474721,0.459684
10:15:08,30-Sep-21,0.689,0.678,0.474721,0.459684
10:15:08,30-Sep-21,0.6795,0.678,0.46172025,0.459684
10:15:08,30-Sep-21,0.6795,0.678,0.46172025,0.459684
10:15:08,30-Sep-21,0.6795,0.678,0.46172025,0.459684
10:15:08,30-Sep-21,0.6695,0.678,0.44823025,0.459684
10:15:08,30-Sep-21,0.6695,0.678,0.44823025,0.459684
10:15:08,30-Sep-21,0.6695,0.678,0.44823025,0.459684
10:15:08,30-Sep-21,0.6645,0.678,0.44156025,0.459684
10:15:08,30-Sep-21,0.6645,0.678,0.44156025,0.459684
10:15:08,30-Sep-21,0.6695,0.678,0.44823025,0.459684
10:15:08,30-Sep-21,0.6695,0.678,0.44823025,0.459684
10:15:08,30-Sep-21,0.6695,0.678,0.44823025,0.459684
10:15:08,30-Sep-21,0.6695,0.678,0.44823025,0.459684
10:15:08,30-Sep-21,0.6795,0.678,0.46172025,0.459684
10:15:08,30-Sep-21,0.689,0.678,0.474721,0.459684
10:15:08,30-Sep-21,0.689,0.678,0.474721,0.459684
10:15:08,30-Sep-21,0.689,0.678,0.474721,0.459684
10:15:08,30-Sep-21,0.694,0.678,0.481636,0.459684
10:15:08,30-Sep-21,0.694,0.677,0.481636,0.458329
10:15:08,30-Sep-21,0.689,0.677,0.474721,0.458329
10:15:08,30-Sep-21,0.689,0.677,0.474721,0.458329
10:15:08,30-Sep-21,0.689,0.677,0.474721,0.458329
10:15:08,30-Sep-21,0.689,0.677,0.474721,0.458329
10:15:08,30-Sep-21,0.6745,0.677,0.45495025,0.458329
10:15:08,30-Sep-21,0.6745,0.677,0.45495025,0.458329
10:15:08,30-Sep-21,0.6745,0.677,0.45495025,0.458329
10:15:08,30-Sep-21,0.6745,0.677,0.45495025,0.458329
10:15:08,30-Sep-21,0.6745,0.677,0.45495025,0.458329
10:15:08,30-Sep-21,0.6645,0.677,0.44156025,0.458329
10:15:08,30-Sep-21,0.6645,0.676,0.44156025,0.456976
10:15:08,30-Sep-21,0.6645,0.676,0.44156025,0.456976
10:15:08,30-Sep-21,0.6645,0.676,0.44156025,0.456976
10:15:08,30-Sep-21,0.6645,0.676,0.44156025,0.456976
10:15:08,30-Sep-21,0.6645,0.676,0.44156025,0.456976
10:15:08,30-Sep-21,0.6645,0.676,0.44156025,0.456976
10:15:08,30-Sep-21,0.6645,0.676,0.44156025,0.456976
10:15:08,30-Sep-21,0.6645,0.676,0.44156025,0.456976
10:15:08,30-Sep-21,0.6745,0.676,0.45495025,0.456976
10:15:08,30-Sep-21,0.6745,0.676,0.45495025,0.456976
10:15:08,30-Sep-21,0.6745,0.676,0.45495025,0.456976
10:15:08,30-Sep-21,0.6745,0.676,0.45495025,0.456976
10:15:08,30-Sep-21,0.6795,0.676,0.46172025,0.456976
10:15:08,30-Sep-21,0.6795,0.676,0.46172025,0.456976
10:15:08,30-Sep-21,0.6795,0.676,0.46172025,0.456976
10:15:08,30-Sep-21,0.689,0.676,0.474721,0.456976
10:15:08,30-Sep-21,0.689,0.676,0.474721,0.456976
10:15:08,30-Sep-21,0.689,0.676,0.474721,0.456976
10:15:08,30-Sep-21,0.689,0.676,0.474721,0.456976
10:15:08,30-Sep-21,0.689,0.676,0.474721,0.456976
10:15:08,30-Sep-21,0.689,0.676,0.474721,0.456976
10:15:08,30-Sep-21,0.6845,0.676,0.46854025,0.456976
10:15:08,30-Sep-21,0.6845,0.676,0.46854025,0.456976
10:15:08,30-Sep-21,0.6845,0.676,0.46854025,0.456976
10:15:08,30-Sep-21,0.6795,0.676,0.46172025,0.456976
10:15:08,30-Sep-21,0.6795,0.676,0.46172025,0.456976
10:15:08,30-Sep-21,0.6795,0.676,0.46172025,0.456976
10:15:08,30-Sep-21,0.6795,0.676,0.46172025,0.456976
10:15:08,30-Sep-21,0.6795,0.676,0.46172025,0.456976
10:15:08,30-Sep-21,0.6695,0.676,0.44823025,0.456976
10:15:08,30-Sep-21,0.6695,0.676,0.44823025,0.456976
10:15:08,30-Sep-21,0.6695,0.676,0.44823025,0.456976
10:15:08,30-Sep-21,0.6645,0.676,0.44156025,0.456976
10:15:08,30-Sep-21,0.6645,0.676,0.44156025,0.456976
10:15:08,30-Sep-21,0.6645,0.676,0.44156025,0.456976
10:15:08,30-Sep-21,0.6645,0.676,0.44156025,0.456976
10:15:08,30-Sep-21,0.6645,0.676,0.44156025,0.456976
10:15:08,30-Sep-21,0.6645,0.677,0.44156025,0.458329
10:15:08,30-Sep-21,0.6645,0.677,0.44156025,0.458329
10:15:08,30-Sep-21,0.6645,0.677,0.44156025,0.458329
10:15:08,30-Sep-21,0.6645,0.677,0.44156025,0.458329
10:15:08,30-Sep-21,0.6695,0.677,0.44823025,0.458329
10:15:08,30-Sep-21,0.6695,0.678,0.44823025,0.459684
10:15:08,30-Sep-21,0.6845,0.678,0.46854025,0.459684
10:15:08,30-Sep-21,0.6845,0.678,0.46854025,0.459684
10:15:08,30-Sep-21,0.689,0.678,0.474721,0.459684
10:15:08,30-Sep-21,0.689,0.679,0.474721,0.461041
10:15:08,30-Sep-21,0.689,0.679,0.474721,0.461041
10:15:08,30-Sep-21,0.689,0.679,0.474721,0.461041
10:15:08,30-Sep-21,0.689,0.679,0.474721,0.461041
10:15:08,30-Sep-21,0.689,0.68,0.474721,0.4624
10:15:08,30-Sep-21,0.689,0.68,0.474721,0.4624
10:15:08,30-Sep-21,0.6845,0.68,0.46854025,0.4624
10:15:08,30-Sep-21,0.6795,0.68,0.46172025,0.4624
10:15:08,30-Sep-21,0.6795,0.681,0.46172025,0.463761
10:15:08,30-Sep-21,0.6745,0.681,0.45495025,0.463761
10:15:08,30-Sep-21,0.6695,0.681,0.44823025,0.463761
10:15:08,30-Sep-21,0.6695,0.681,0.44823025,0.463761
10:15:08,30-Sep-21,0.6695,0.681,0.44823025,0.463761
10:15:08,30-Sep-21,0.6695,0.681,0.44823025,0.463761
10:15:08,30-Sep-21,0.6745,0.681,0.45495025,0.463761
10:15:08,30-Sep-21,0.6795,0.681,0.46172025,0.463761
10:15:08,30-Sep-21,0.6795,0.681,0.46172025,0.463761
10:15:08,30-Sep-21,0.6795,0.681,0.46172025,0.463761
10:15:08,30-Sep-21,0.694,0.681,0.481636,0.463761
10:15:08,30-Sep-21,0.694,0.681,0.481636,0.463761
10:15:08,30-Sep-21,0.694,0.681,0.481636,0.463761
10:15:08,30-Sep-21,0.694,0.681,0.481636,0.463761
10:15:08,30-Sep-21,0.694,0.681,0.481636,0.463761
10:15:08,30-Sep-21,0.694,0.681,0.481636,0.463761
10:15:08,30-Sep-21,0.689,0.68,0.474721,0.4624
10:15:08,30-Sep-21,0.689,0.68,0.474721,0.4624
10:15:08,30-Sep-21,0.689,0.68,0.474721,0.4624
10:15:08,30-Sep-21,0.6845,0.679,0.46854025,0.461041
10:15:08,30-Sep-21,0.6845,0.679,0.46854025,0.461041
10:15:08,30-Sep-21,0.6795,0.678,0.46172025,0.459684
10:15:08,30-Sep-21,0.6795,0.678,0.46172025,0.459684
10:15:08,30-Sep-21,0.6695,0.677,0.44823025,0.458329
10:15:08,30-Sep-21,0.6695,0.677,0.44823025,0.458329
10:15:08,30-Sep-21,0.6695,0.676,0.44823025,0.456976
10:15:08,30-Sep-21,0.6695,0.676,0.44823025,0.456976
10:15:08,30-Sep-21,0.6695,0.675,0.44823025,0.455625
10:15:08,30-Sep-21,0.6645,0.674,0.44156025,0.454276
10:15:08,30-Sep-21,0.6645,0.674,0.44156025,0.454276
10:15:08,30-Sep-21,0.66,0.673,0.4356,0.452929
10:15:08,30-Sep-21,0.66,0.673,0.4356,0.452929
10:15:08,30-Sep-21,0.66,0.672,0.4356,0.451584
10:15:08,30-Sep-21,0.66,0.671,0.4356,0.450241
10:15:08,30-Sep-21,0.66,0.671,0.4356,0.450241
10:15:08,30-Sep-21,0.66,0.67,0.4356,0.4489
10:15:08,30-Sep-21,0.6695,0.669,0.44823025,0.447561
10:15:08,30-Sep-21,0.6695,0.669,0.44823025,0.447561
10:15:08,30-Sep-21,0.6695,0.668,0.44823025,0.446224
10:15:08,30-Sep-21,0.6695,0.667,0.44823025,0.444889
10:15:08,30-Sep-21,0.6695,0.667,0.44823025,0.444889
10:15:08,30-Sep-21,0.6695,0.666,0.44823025,0.443556
10:15:08,30-Sep-21,0.6745,0.665,0.45495025,0.442225
10:15:08,30-Sep-21,0.6745,0.664,0.45495025,0.440896
10:15:08,30-Sep-21,0.6745,0.664,0.45495025,0.440896
10:15:08,30-Sep-21,0.6745,0.663,0.45495025,0.439569
10:15:08,30-Sep-21,0.6745,0.662,0.45495025,0.438244
10:15:08,30-Sep-21,0.6695,0.661,0.44823025,0.436921
10:15:08,30-Sep-21,0.6695,0.661,0.44823025,0.436921
10:15:09,30-Sep-21,0.6695,0.66,0.44823025,0.4356
10:15:09,30-Sep-21,0.6645,0.659,0.44156025,0.434281
10:15:09,30-Sep-21,0.6645,0.658,0.44156025,0.432964
10:15:09,30-Sep-21,0.6645,0.658,0.44156025,0.432964
10:15:09,30-Sep-21,0.655,0.657,0.429025,0.431649
10:15:09,30-Sep-21,0.655,0.656,0.429025,0.430336
10:15:09,30-Sep-21,0.655,0.656,0.429025,0.430336
10:15:09,30-Sep-21,0.655,0.655,0.429025,0.429025
10:15:09,30-Sep-21,0.655,0.654,0.429025,0.427716
10:15:09,30-Sep-21,0.65,0.654,0.4225,0.427716
10:15:09,30-Sep-21,0.65,0.653,0.4225,0.426409
10:15:09,30-Sep-21,0.65,0.652,0.4225,0.425104
10:15:09,30-Sep-21,0.6405,0.652,0.41024025,0.425104
10:15:09,30-Sep-21,0.6405,0.651,0.41024025,0.423801
10:15:09,30-Sep-21,0.6405,0.651,0.41024025,0.423801
10:15:09,30-Sep-21,0.6405,0.65,0.41024025,0.4225
10:15:09,30-Sep-21,0.6405,0.65,0.41024025,0.4225
10:15:09,30-Sep-21,0.6355,0.649,0.40386025,0.421201
10:15:09,30-Sep-21,0.6355,0.649,0.40386025,0.421201
10:15:09,30-Sep-21,0.6355,0.649,0.40386025,0.421201
10:15:09,30-Sep-21,0.6355,0.648,0.40386025,0.419904
10:15:09,30-Sep-21,0.6355,0.648,0.40386025,0.419904
10:15:09,30-Sep-21,0.6405,0.648,0.41024025,0.419904
10:15:09,30-Sep-21,0.655,0.647,0.429025,0.418609
10:15:09,30-Sep-21,0.655,0.647,0.429025,0.418609
10:15:09,30-Sep-21,0.655,0.647,0.429025,0.418609
10:15:09,30-Sep-21,0.655,0.647,0.429025,0.418609
10:15:09,30-Sep-21,0.655,0.646,0.429025,0.417316
10:15:09,30-Sep-21,0.655,0.646,0.429025,0.417316
10:15:09,30-Sep-21,0.655,0.646,0.429025,0.417316
10:15:09,30-Sep-21,0.655,0.646,0.429025,0.417316
10:15:09,30-Sep-21,0.655,0.646,0.429025,0.417316
10:15:09,30-Sep-21,0.655,0.646,0.429025,0.417316
10:15:09,30-Sep-21,0.655,0.645,0.429025,0.416025
10:15:09,30-Sep-21,0.655,0.645,0.429025,0.416025
10:15:09,30-Sep-21,0.655,0.645,0.429025,0.416025
10:15:09,30-Sep-21,0.655,0.645,0.429025,0.416025
10:15:09,30-Sep-21,0.655,0.645,0.429025,0.416025
10:15:09,30-Sep-21,0.6405,0.645,0.41024025,0.416025
10:15:09,30-Sep-21,0.6405,0.645,0.41024025,0.416025
10:15:09,30-Sep-21,0.6405,0.645,0.41024025,0.416025
10:15:09,30-Sep-21,0.6405,0.645,0.41024025,0.416025
10:15:09,30-Sep-21,0.6405,0.645,0.41024025,0.416025
10:15:09,30-Sep-21,0.6305,0.644,0.39753025,0.414736
10:15:09,30-Sep-21,0.6305,0.644,0.39753025,0.414736
10:15:09,30-Sep-21,0.6305,0.644,0.39753025,0.414736
10:15:09,30-Sep-21,0.6305,0.644,0.39753025,0.414736
10:15:09,30-Sep-21,0.6305,0.644,0.39753025,0.414736
10:15:09,30-Sep-21,0.6355,0.644,0.40386025,0.414736
10:15:09,30-Sep-21,0.6405,0.644,0.41024025,0.414736
10:15:09,30-Sep-21,0.6405,0.644,0.41024025,0.414736
10:15:09,30-Sep-21,0.645,0.644,0.416025,0.414736
10:15:09,30-Sep-21,0.645,0.644,0.416025,0.414736
10:15:09,30-Sep-21,0.655,0.644,0.429025,0.414736
10:15:09,30-Sep-21,0.655,0.644,0.429025,0.414736
10:15:09,30-Sep-21,0.655,0.644,0.429025,0.414736
10:15:09,30-Sep-21,0.655,0.644,0.429025,0.414736
10:15:09,30-Sep-21,0.655,0.644,0.429025,0.414736
10:15:09,30-Sep-21,0.655,0.644,0.429025,0.414736
10:15:09,30-Sep-21,0.65,0.644,0.4225,0.414736
10:15:09,30-Sep-21,0.65,0.643,0.4225,0.413449
10:15:09,30-Sep-21,0.65,0.643,0.4225,0.413449
10:15:09,30-Sep-21,0.645,0.643,0.416025,0.413449
10:15:09,30-Sep-21,0.645,0.643,0.416025,0.413449
10:15:09,30-Sep-21,0.645,0.643,0.416025,0.413449
10:15:09,30-Sep-21,0.6355,0.643,0.40386025,0.413449
10:15:09,30-Sep-21,0.6355,0.643,0.40386025,0.413449
10:15:09,30-Sep-21,0.6355,0.643,0.40386025,0.413449
10:15:09,30-Sep-21,0.6355,0.643,0.40386025,0.413449
10:15:09,30-Sep-21,0.6355,0.643,0.40386025,0.413449
10:15:09,30-Sep-21,0.6305,0.643,0.39753025,0.413449
10:15:09,30-Sep-21,0.6305,0.643,0.39753025,0.413449
10:15:09,30-Sep-21,0.6305,0.643,0.39753025,0.413449
10:15:09,30-Sep-21,0.6355,0.643,0.40386025,0.413449
10:15:09,30-Sep-21,0.6355,0.642,0.40386025,0.412164
10:15:09,30-Sep-21,0.6355,0.642,0.40386025,0.412164
10:15:09,30-Sep-21,0.65,0.642,0.4225,0.412164
10:15:09,30-Sep-21,0.65,0.642,0.4225,0.412164
10:15:09,30-Sep-21,0.65,0.642,0.4225,0.412164
10:15:09,30-Sep-21,0.65,0.642,0.4225,0.412164
10:15:09,30-Sep-21,0.65,0.642,0.4225,0.412164
10:15:09,30-Sep-21,0.655,0.642,0.429025,0.412164
10:15:09,30-Sep-21,0.655,0.642,0.429025,0.412164
10:15:09,30-Sep-21,0.645,0.642,0.416025,0.412164
10:15:09,30-Sep-21,0.645,0.642,0.416025,0.412164
10:15:09,30-Sep-21,0.645,0.642,0.416025,0.412164
10:15:09,30-Sep-21,0.645,0.641,0.416025,0.410881
10:15:09,30-Sep-21,0.645,0.641,0.416025,0.410881
10:15:09,30-Sep-21,0.6305,0.641,0.39753025,0.410881
10:15:09,30-Sep-21,0.6305,0.641,0.39753025,0.410881
10:15:09,30-Sep-21,0.6305,0.641,0.39753025,0.410881
10:15:09,30-Sep-21,0.6305,0.641,0.39753025,0.410881
10:15:09,30-Sep-21,0.6355,0.641,0.40386025,0.410881
10:15:09,30-Sep-21,0.6405,0.641,0.41024025,0.410881
10:15:09,30-Sep-21,0.6405,0.641,0.41024025,0.410881
10:15:09,30-Sep-21,0.6405,0.641,0.41024025,0.410881
10:15:09,30-Sep-21,0.65,0.641,0.4225,0.410881
10:15:09,30-Sep-21,0.65,0.64,0.4225,0.4096
10:15:09,30-Sep-21,0.65,0.64,0.4225,0.4096
10:15:09,30-Sep-21,0.65,0.64,0.4225,0.4096
10:15:09,30-Sep-21,0.645,0.64,0.416025,0.4096
10:15:09,30-Sep-21,0.645,0.64,0.416025,0.4096
10:15:09,30-Sep-21,0.645,0.64,0.416025,0.4096
10:15:09,30-Sep-21,0.6405,0.64,0.41024025,0.4096
10:15:09,30-Sep-21,0.6355,0.64,0.40386025,0.4096
10:15:09,30-Sep-21,0.6355,0.64,0.40386025,0.4096
10:15:09,30-Sep-21,0.6305,0.64,0.39753025,0.4096
10:15:09,30-Sep-21,0.6305,0.64,0.39753025,0.4096
10:15:09,30-Sep-21,0.6305,0.64,0.39753025,0.4096
10:15:09,30-Sep-21,0.6305,0.64,0.39753025,0.4096
10:15:09,30-Sep-21,0.6305,0.64,0.39753025,0.4096
10:15:09,30-Sep-21,0.6305,0.64,0.39753025,0.4096
10:15:09,30-Sep-21,0.6305,0.64,0.39753025,0.4096
10:15:09,30-Sep-21,0.6405,0.64,0.41024025,0.4096
10:15:09,30-Sep-21,0.6405,0.64,0.41024025,0.4096
10:15:09,30-Sep-21,0.645,0.64,0.416025,0.4096
10:15:09,30-Sep-21,0.645,0.64,0.416025,0.4096
10:15:09,30-Sep-21,0.65,0.64,0.4225,0.4096
10:15:09,30-Sep-21,0.65,0.64,0.4225,0.4096
10:15:09,30-Sep-21,0.65,0.641,0.4225,0.410881
10:15:09,30-Sep-21,0.65,0.641,0.4225,0.410881
10:15:09,30-Sep-21,0.645,0.641,0.416025,0.410881
10:15:10,30-Sep-21,0.645,0.641,0.416025,0.410881
10:15:10,30-Sep-21,0.645,0.641,0.416025,0.410881
10:15:10,30-Sep-21,0.645,0.641,0.416025,0.410881
10:15:10,30-Sep-21,0.6355,0.641,0.40386025,0.410881
10:15:10,30-Sep-21,0.6355,0.641,0.40386025,0.410881
10:15:10,30-Sep-21,0.6305,0.641,0.39753025,0.410881
10:15:10,30-Sep-21,0.6305,0.641,0.39753025,0.410881
10:15:10,30-Sep-21,0.6305,0.641,0.39753025,0.410881
10:15:10,30-Sep-21,0.6305,0.641,0.39753025,0.410881
10:15:10,30-Sep-21,0.6305,0.642,0.39753025,0.412164
10:15:10,30-Sep-21,0.6355,0.642,0.40386025,0.412164
10:15:10,30-Sep-21,0.6355,0.642,0.40386025,0.412164
10:15:10,30-Sep-21,0.65,0.642,0.4225,0.412164
10:15:10,30-Sep-21,0.655,0.642,0.429025,0.412164
10:15:10,30-Sep-21,0.655,0.642,0.429025,0.412164
10:15:10,30-Sep-21,0.655,0.642,0.429025,0.412164
10:15:10,30-Sep-21,0.655,0.642,0.429025,0.412164
10:15:10,30-Sep-21,0.655,0.642,0.429025,0.412164
10:15:10,30-Sep-21,0.655,0.642,0.429025,0.412164
10:15:10,30-Sep-21,0.645,0.642,0.416025,0.412164
10:15:10,30-Sep-21,0.6405,0.642,0.41024025,0.412164
10:15:10,30-Sep-21,0.6405,0.642,0.41024025,0.412164
10:15:10,30-Sep-21,0.6405,0.642,0.41024025,0.412164
10:15:10,30-Sep-21,0.6305,0.642,0.39753025,0.412164
10:15:10,30-Sep-21,0.6305,0.642,0.39753025,0.412164
10:15:10,30-Sep-21,0.6305,0.642,0.39753025,0.412164
10:15:10,30-Sep-21,0.6305,0.642,0.39753025,0.412164
10:15:10,30-Sep-21,0.6355,0.641,0.40386025,0.410881
10:15:10,30-Sep-21,0.6355,0.641,0.40386025,0.410881
10:15:10,30-Sep-21,0.6405,0.641,0.41024025,0.410881
10:15:10,30-Sep-21,0.65,0.641,0.4225,0.410881
10:15:10,30-Sep-21,0.65,0.641,0.4225,0.410881
10:15:10,30-Sep-21,0.65,0.641,0.4225,0.410881
10:15:10,30-Sep-21,0.65,0.641,0.4225,0.410881
10:15:10,30-Sep-21,0.65,0.641,0.4225,0.410881
10:15:10,30-Sep-21,0.65,0.641,0.4225,0.410881
10:15:10,30-Sep-21,0.645,0.641,0.416025,0.410881
10:15:10,30-Sep-21,0.645,0.641,0.416025,0.410881
10:15:10,30-Sep-21,0.645,0.641,0.416025,0.410881
10:15:10,30-Sep-21,0.6355,0.641,0.40386025,0.410881
10:15:10,30-Sep-21,0.6355,0.641,0.40386025,0.410881
10:15:10,30-Sep-21,0.6305,0.64,0.39753025,0.4096
10:15:10,30-Sep-21,0.6305,0.64,0.39753025,0.4096
10:15:10,30-Sep-21,0.6255,0.64,0.39125025,0.4096
10:15:10,30-Sep-21,0.6255,0.64,0.39125025,0.4096
10:15:10,30-Sep-21,0.6255,0.64,0.39125025,0.4096
10:15:10,30-Sep-21,0.6305,0.64,0.39753025,0.4096
10:15:10,30-Sep-21,0.6305,0.64,0.39753025,0.4096
10:15:10,30-Sep-21,0.6305,0.64,0.39753025,0.4096
10:15:10,30-Sep-21,0.645,0.64,0.416025,0.4096
10:15:10,30-Sep-21,0.645,0.64,0.416025,0.4096
10:15:10,30-Sep-21,0.65,0.641,0.4225,0.410881
10:15:10,30-Sep-21,0.65,0.641,0.4225,0.410881
10:15:10,30-Sep-21,0.655,0.641,0.429025,0.410881
10:15:10,30-Sep-21,0.655,0.641,0.429025,0.410881
10:15:10,30-Sep-21,0.655,0.641,0.429025,0.410881
10:15:10,30-Sep-21,0.65,0.641,0.4225,0.410881
10:15:10,30-Sep-21,0.65,0.641,0.4225,0.410881
10:15:10,30-Sep-21,0.645,0.641,0.416025,0.410881
10:15:10,30-Sep-21,0.645,0.641,0.416025,0.410881
10:15:10,30-Sep-21,0.645,0.641,0.416025,0.410881
10:15:10,30-Sep-21,0.645,0.641,0.416025,0.410881
10:15:10,30-Sep-21,0.6405,0.641,0.41024025,0.410881
10:15:10,30-Sep-21,0.6305,0.641,0.39753025,0.410881
10:15:10,30-Sep-21,0.6305,0.641,0.39753025,0.410881
10:15:10,30-Sep-21,0.6305,0.641,0.39753025,0.410881
10:15:10,30-Sep-21,0.6305,0.641,0.39753025,0.410881
10:15:10,30-Sep-21,0.6305,0.641,0.39753025,0.410881
10:15:10,30-Sep-21,0.6305,0.641,0.39753025,0.410881
10:15:10,30-Sep-21,0.6305,0.641,0.39753025,0.410881
10:15:10,30-Sep-21,0.6355,0.641,0.40386025,0.410881
10:15:10,30-Sep-21,0.6355,0.642,0.40386025,0.412164
10:15:10,30-Sep-21,0.6355,0.642,0.40386025,0.412164
10:15:10,30-Sep-21,0.6355,0.642,0.40386025,0.412164
10:15:10,30-Sep-21,0.6355,0.642,0.40386025,0.412164
10:15:10,30-Sep-21,0.65,0.642,0.4225,0.412164
10:15:10,30-Sep-21,0.65,0.642,0.4225,0.412164
10:15:10,30-Sep-21,0.65,0.642,0.4225,0.412164
10:15:10,30-Sep-21,0.65,0.642,0.4225,0.412164
10:15:10,30-Sep-21,0.65,0.642,0.4225,0.412164
10:15:10,30-Sep-21,0.65,0.642,0.4225,0.412164
10:15:10,30-Sep-21,0.65,0.642,0.4225,0.412164
10:15:10,30-Sep-21,0.65,0.641,0.4225,0.410881
10:15:10,30-Sep-21,0.65,0.641,0.4225,0.410881
10:15:10,30-Sep-21,0.65,0.641,0.4225,0.410881
10:15:10,30-Sep-21,0.65,0.641,0.4225,0.410881
10:15:10,30-Sep-21,0.65,0.641,0.4225,0.410881
10:15:10,30-Sep-21,0.65,0.641,0.4225,0.410881
10:15:10,30-Sep-21,0.645,0.641,0.416025,0.410881
10:15:10,30-Sep-21,0.645,0.641,0.416025,0.410881
10:15:10,30-Sep-21,0.6355,0.641,0.40386025,0.410881
10:15:10,30-Sep-21,0.6355,0.64,0.40386025,0.4096
10:15:10,30-Sep-21,0.6305,0.64,0.39753025,0.4096
10:15:10,30-Sep-21,0.6305,0.64,0.39753025,0.4096
10:15:10,30-Sep-21,0.6255,0.64,0.39125025,0.4096
10:15:10,30-Sep-21,0.6255,0.64,0.39125025,0.4096
10:15:10,30-Sep-21,0.6255,0.64,0.39125025,0.4096
10:15:10,30-Sep-21,0.6255,0.639,0.39125025,0.408321
10:15:10,30-Sep-21,0.6355,0.639,0.40386025,0.408321
10:15:10,30-Sep-21,0.6355,0.639,0.40386025,0.408321
10:15:10,30-Sep-21,0.6355,0.639,0.40386025,0.408321
10:15:10,30-Sep-21,0.6405,0.639,0.41024025,0.408321
10:15:10,30-Sep-21,0.6405,0.639,0.41024025,0.408321
10:15:10,30-Sep-21,0.6405,0.638,0.41024025,0.407044
10:15:10,30-Sep-21,0.6405,0.638,0.41024025,0.407044
10:15:10,30-Sep-21,0.65,0.638,0.4225,0.407044
10:15:10,30-Sep-21,0.65,0.638,0.4225,0.407044
10:15:10,30-Sep-21,0.65,0.638,0.4225,0.407044
10:15:10,30-Sep-21,0.65,0.638,0.4225,0.407044
10:15:10,30-Sep-21,0.65,0.638,0.4225,0.407044
10:15:10,30-Sep-21,0.645,0.638,0.416025,0.407044
10:15:11,30-Sep-21,0.645,0.637,0.416025,0.405769
10:15:11,30-Sep-21,0.6405,0.637,0.41024025,0.405769
10:15:11,30-Sep-21,0.6405,0.637,0.41024025,0.405769
10:15:11,30-Sep-21,0.6305,0.637,0.39753025,0.405769
10:15:11,30-Sep-21,0.6305,0.637,0.39753025,0.405769
10:15:11,30-Sep-21,0.6305,0.637,0.39753025,0.405769
10:15:11,30-Sep-21,0.6255,0.637,0.39125025,0.405769
10:15:11,30-Sep-21,0.6205,0.637,0.38502025,0.405769
10:15:11,30-Sep-21,0.6205,0.637,0.38502025,0.405769
10:15:11,30-Sep-21,0.6255,0.637,0.39125025,0.405769
10:15:11,30-Sep-21,0.6255,0.637,0.39125025,0.405769
10:15:11,30-Sep-21,0.6255,0.637,0.39125025,0.405769
10:15:11,30-Sep-21,0.6255,0.637,0.39125025,0.405769
10:15:11,30-Sep-21,0.6255,0.637,0.39125025,0.405769
10:15:11,30-Sep-21,0.645,0.637,0.416025,0.405769
10:15:11,30-Sep-21,0.645,0.637,0.416025,0.405769
10:15:11,30-Sep-21,0.645,0.637,0.416025,0.405769
10:15:11,30-Sep-21,0.645,0.637,0.416025,0.405769
10:15:11,30-Sep-21,0.645,0.637,0.416025,0.405769
10:15:11,30-Sep-21,0.645,0.638,0.416025,0.407044
10:15:11,30-Sep-21,0.645,0.638,0.416025,0.407044
10:15:11,30-Sep-21,0.645,0.638,0.416025,0.407044
10:15:11,30-Sep-21,0.645,0.638,0.416025,0.407044
10:15:11,30-Sep-21,0.645,0.638,0.416025,0.407044
10:15:11,30-Sep-21,0.645,0.638,0.416025,0.407044
10:15:11,30-Sep-21,0.645,0.638,0.416025,0.407044
10:15:11,30-Sep-21,0.645,0.638,0.416025,0.407044
10:15:11,30-Sep-21,0.645,0.638,0.416025,0.407044
10:15:11,30-Sep-21,0.6405,0.638,0.41024025,0.407044
10:15:11,30-Sep-21,0.6405,0.638,0.41024025,0.407044
10:15:11,30-Sep-21,0.6405,0.638,0.41024025,0.407044
10:15:11,30-Sep-21,0.6405,0.638,0.41024025,0.407044
10:15:11,30-Sep-21,0.6405,0.638,0.41024025,0.407044
10:15:11,30-Sep-21,0.6355,0.638,0.40386025,0.407044
10:15:11,30-Sep-21,0.6255,0.638,0.39125025,0.407044
10:15:11,30-Sep-21,0.6255,0.638,0.39125025,0.407044
10:15:11,30-Sep-21,0.6255,0.638,0.39125025,0.407044
10:15:11,30-Sep-21,0.6255,0.638,0.39125025,0.407044
10:15:11,30-Sep-21,0.6255,0.638,0.39125025,0.407044
10:15:11,30-Sep-21,0.6255,0.638,0.39125025,0.407044
10:15:11,30-Sep-21,0.6305,0.638,0.39753025,0.407044
10:15:11,30-Sep-21,0.6305,0.638,0.39753025,0.407044
10:15:11,30-Sep-21,0.6355,0.638,0.40386025,0.407044
10:15:11,30-Sep-21,0.6355,0.638,0.40386025,0.407044
10:15:11,30-Sep-21,0.6355,0.637,0.40386025,0.405769
10:15:11,30-Sep-21,0.645,0.637,0.416025,0.405769
10:15:11,30-Sep-21,0.645,0.637,0.416025,0.405769
10:15:11,30-Sep-21,0.65,0.637,0.4225,0.405769
10:15:11,30-Sep-21,0.65,0.637,0.4225,0.405769
10:15:11,30-Sep-21,0.65,0.637,0.4225,0.405769
10:15:11,30-Sep-21,0.645,0.637,0.416025,0.405769
10:15:11,30-Sep-21,0.645,0.637,0.416025,0.405769
10:15:11,30-Sep-21,0.6405,0.637,0.41024025,0.405769
10:15:11,30-Sep-21,0.6405,0.637,0.41024025,0.405769
10:15:11,30-Sep-21,0.6405,0.637,0.41024025,0.405769
10:15:11,30-Sep-21,0.6405,0.637,0.41024025,0.405769
10:15:11,30-Sep-21,0.6405,0.637,0.41024025,0.405769
10:15:11,30-Sep-21,0.6405,0.637,0.41024025,0.405769
10:15:11,30-Sep-21,0.6355,0.636,0.40386025,0.404496
10:15:11,30-Sep-21,0.6355,0.636,0.40386025,0.404496
10:15:11,30-Sep-21,0.6355,0.636,0.40386025,0.404496
10:15:11,30-Sep-21,0.6305,0.636,0.39753025,0.404496
10:15:11,30-Sep-21,0.6305,0.636,0.39753025,0.404496
10:15:11,30-Sep-21,0.6305,0.636,0.39753025,0.404496
10:15:11,30-Sep-21,0.6305,0.636,0.39753025,0.404496
10:15:11,30-Sep-21,0.6305,0.636,0.39753025,0.404496
10:15:11,30-Sep-21,0.6305,0.636,0.39753025,0.404496
10:15:11,30-Sep-21,0.6255,0.636,0.39125025,0.404496
10:15:11,30-Sep-21,0.6255,0.636,0.39125025,0.404496
10:15:11,30-Sep-21,0.6255,0.636,0.39125025,0.404496
10:15:11,30-Sep-21,0.6255,0.636,0.39125025,0.404496
10:15:11,30-Sep-21,0.6255,0.636,0.39125025,0.404496
10:15:11,30-Sep-21,0.6255,0.636,0.39125025,0.404496
10:15:11,30-Sep-21,0.6255,0.636,0.39125025,0.404496
10:15:11,30-Sep-21,0.6405,0.636,0.41024025,0.404496
10:15:11,30-Sep-21,0.6405,0.636,0.41024025,0.404496
10:15:11,30-Sep-21,0.645,0.636,0.416025,0.404496
10:15:11,30-Sep-21,0.645,0.636,0.416025,0.404496
10:15:11,30-Sep-21,0.65,0.636,0.4225,0.404496
10:15:11,30-Sep-21,0.65,0.636,0.4225,0.404496
10:15:11,30-Sep-21,0.65,0.636,0.4225,0.404496
10:15:11,30-Sep-21,0.65,0.635,0.4225,0.403225
10:15:11,30-Sep-21,0.6405,0.635,0.41024025,0.403225
10:15:11,30-Sep-21,0.6355,0.635,0.40386025,0.403225
10:15:11,30-Sep-21,0.6355,0.635,0.40386025,0.403225
10:15:11,30-Sep-21,0.6355,0.635,0.40386025,0.403225
10:15:11,30-Sep-21,0.6255,0.635,0.39125025,0.403225
10:15:11,30-Sep-21,0.6255,0.635,0.39125025,0.403225
10:15:11,30-Sep-21,0.6205,0.634,0.38502025,0.401956
10:15:11,30-Sep-21,0.6255,0.634,0.39125025,0.401956
10:15:11,30-Sep-21,0.6255,0.634,0.39125025,0.401956
10:15:11,30-Sep-21,0.6255,0.634,0.39125025,0.401956
10:15:11,30-Sep-21,0.6255,0.634,0.39125025,0.401956
10:15:11,30-Sep-21,0.6405,0.633,0.41024025,0.400689
10:15:11,30-Sep-21,0.6405,0.633,0.41024025,0.400689
10:15:11,30-Sep-21,0.645,0.633,0.416025,0.400689
10:15:11,30-Sep-21,0.645,0.632,0.416025,0.399424
10:15:11,30-Sep-21,0.6405,0.632,0.41024025,0.399424
10:15:11,30-Sep-21,0.6405,0.632,0.41024025,0.399424
10:15:11,30-Sep-21,0.6405,0.631,0.41024025,0.398161
10:15:11,30-Sep-21,0.6355,0.631,0.40386025,0.398161
10:15:11,30-Sep-21,0.6355,0.63,0.40386025,0.3969
10:15:11,30-Sep-21,0.6355,0.63,0.40386025,0.3969
10:15:11,30-Sep-21,0.6355,0.629,0.40386025,0.395641
10:15:11,30-Sep-21,0.6255,0.629,0.39125025,0.395641
10:15:11,30-Sep-21,0.6255,0.629,0.39125025,0.395641
10:15:11,30-Sep-21,0.6205,0.628,0.38502025,0.394384
10:15:11,30-Sep-21,0.616,0.628,0.379456,0.394384
10:15:11,30-Sep-21,0.616,0.627,0.379456,0.393129
10:15:11,30-Sep-21,0.616,0.627,0.379456,0.393129
10:15:11,30-Sep-21,0.616,0.626,0.379456,0.391876
10:15:11,30-Sep-21,0.616,0.626,0.379456,0.391876
10:15:11,30-Sep-21,0.6205,0.625,0.38502025,0.390625
10:15:11,30-Sep-21,0.6205,0.625,0.38502025,0.390625
10:15:11,30-Sep-21,0.6255,0.624,0.39125025,0.389376
10:15:11,30-Sep-21,0.6305,0.624,0.39753025,0.389376
10:15:11,30-Sep-21,0.6305,0.623,0.39753025,0.388129
10:15:11,30-Sep-21,0.6305,0.623,0.39753025,0.388129
10:15:11,30-Sep-21,0.6305,0.623,0.39753025,0.388129
10:15:11,30-Sep-21,0.6305,0.622,0.39753025,0.386884
10:15:11,30-Sep-21,0.6305,0.622,0.39753025,0.386884
10:15:11,30-Sep-21,0.6255,0.621,0.39125025,0.385641
10:15:12,30-Sep-21,0.6205,0.621,0.38502025,0.385641
10:15:12,30-Sep-21,0.6205,0.621,0.38502025,0.385641
10:15:12,30-Sep-21,0.6205,0.62,0.38502025,0.3844
10:15:12,30-Sep-21,0.611,0.62,0.373321,0.3844
10:15:12,30-Sep-21,0.611,0.62,0.373321,0.3844
10:15:12,30-Sep-21,0.606,0.619,0.367236,0.383161
10:15:12,30-Sep-21,0.611,0.619,0.373321,0.383161
10:15:12,30-Sep-21,0.611,0.619,0.373321,0.383161
10:15:12,30-Sep-21,0.6255,0.619,0.39125025,0.383161
10:15:12,30-Sep-21,0.6255,0.619,0.39125025,0.383161
10:15:12,30-Sep-21,0.6255,0.618,0.39125025,0.381924
10:15:12,30-Sep-21,0.6255,0.618,0.39125025,0.381924
10:15:12,30-Sep-21,0.6305,0.618,0.39753025,0.381924
10:15:12,30-Sep-21,0.6305,0.618,0.39753025,0.381924
10:15:12,30-Sep-21,0.6255,0.618,0.39125025,0.381924
10:15:12,30-Sep-21,0.6255,0.618,0.39125025,0.381924
10:15:12,30-Sep-21,0.616,0.618,0.379456,0.381924
10:15:12,30-Sep-21,0.616,0.618,0.379456,0.381924
10:15:12,30-Sep-21,0.616,0.618,0.379456,0.381924
10:15:12,30-Sep-21,0.611,0.618,0.373321,0.381924
10:15:12,30-Sep-21,0.606,0.618,0.367236,0.381924
10:15:12,30-Sep-21,0.606,0.618,0.367236,0.381924
10:15:12,30-Sep-21,0.606,0.619,0.367236,0.383161
10:15:12,30-Sep-21,0.606,0.619,0.367236,0.383161
10:15:12,30-Sep-21,0.606,0.619,0.367236,0.383161
10:15:12,30-Sep-21,0.606,0.619,0.367236,0.383161
10:15:12,30-Sep-21,0.616,0.619,0.379456,0.383161
10:15:12,30-Sep-21,0.616,0.62,0.379456,0.3844
10:15:12,30-Sep-21,0.616,0.62,0.379456,0.3844
10:15:12,30-Sep-21,0.616,0.62,0.379456,0.3844
10:15:12,30-Sep-21,0.6305,0.621,0.39753025,0.385641
10:15:12,30-Sep-21,0.6305,0.621,0.39753025,0.385641
10:15:12,30-Sep-21,0.6305,0.621,0.39753025,0.385641
10:15:12,30-Sep-21,0.6305,0.622,0.39753025,0.386884
10:15:12,30-Sep-21,0.6305,0.622,0.39753025,0.386884
10:15:12,30-Sep-21,0.6305,0.622,0.39753025,0.386884
10:15:12,30-Sep-21,0.6305,0.623,0.39753025,0.388129
10:15:12,30-Sep-21,0.6305,0.623,0.39753025,0.388129
10:15:12,30-Sep-21,0.6305,0.623,0.39753025,0.388129
10:15:12,30-Sep-21,0.6305,0.624,0.39753025,0.389376
10:15:12,30-Sep-21,0.6305,0.624,0.39753025,0.389376
10:15:12,30-Sep-21,0.6305,0.625,0.39753025,0.390625
10:15:12,30-Sep-21,0.6305,0.625,0.39753025,0.390625
10:15:12,30-Sep-21,0.6305,0.625,0.39753025,0.390625
10:15:12,30-Sep-21,0.6205,0.626,0.38502025,0.391876
10:15:12,30-Sep-21,0.6205,0.626,0.38502025,0.391876
10:15:12,30-Sep-21,0.6205,0.626,0.38502025,0.391876
10:15:12,30-Sep-21,0.6205,0.626,0.38502025,0.391876
10:15:12,30-Sep-21,0.6205,0.627,0.38502025,0.393129
10:15:12,30-Sep-21,0.616,0.627,0.379456,0.393129
10:15:12,30-Sep-21,0.616,0.627,0.379456,0.393129
10:15:12,30-Sep-21,0.616,0.627,0.379456,0.393129
10:15:12,30-Sep-21,0.616,0.628,0.379456,0.394384
10:15:12,30-Sep-21,0.616,0.628,0.379456,0.394384
10:15:12,30-Sep-21,0.616,0.628,0.379456,0.394384
10:15:12,30-Sep-21,0.6255,0.628,0.39125025,0.394384
10:15:12,30-Sep-21,0.6255,0.628,0.39125025,0.394384
10:15:12,30-Sep-21,0.6305,0.629,0.39753025,0.395641
10:15:12,30-Sep-21,0.6355,0.629,0.40386025,0.395641
10:15:12,30-Sep-21,0.6355,0.629,0.40386025,0.395641
10:15:12,30-Sep-21,0.6405,0.629,0.41024025,0.395641
10:15:12,30-Sep-21,0.6405,0.629,0.41024025,0.395641
10:15:12,30-Sep-21,0.6405,0.629,0.41024025,0.395641
10:15:12,30-Sep-21,0.6405,0.629,0.41024025,0.395641
10:15:12,30-Sep-21,0.6405,0.629,0.41024025,0.395641
10:15:12,30-Sep-21,0.6405,0.629,0.41024025,0.395641
10:15:12,30-Sep-21,0.6355,0.628,0.40386025,0.394384
10:15:12,30-Sep-21,0.6355,0.628,0.40386025,0.394384
10:15:12,30-Sep-21,0.6355,0.628,0.40386025,0.394384
10:15:12,30-Sep-21,0.6205,0.628,0.38502025,0.394384
10:15:12,30-Sep-21,0.6205,0.628,0.38502025,0.394384
10:15:12,30-Sep-21,0.6205,0.627,0.38502025,0.393129
10:15:12,30-Sep-21,0.6205,0.627,0.38502025,0.393129
10:15:12,30-Sep-21,0.6205,0.627,0.38502025,0.393129
10:15:12,30-Sep-21,0.6205,0.626,0.38502025,0.391876
10:15:12,30-Sep-21,0.616,0.626,0.379456,0.391876
10:15:12,30-Sep-21,0.6205,0.626,0.38502025,0.391876
10:15:12,30-Sep-21,0.6205,0.625,0.38502025,0.390625
10:15:12,30-Sep-21,0.6305,0.625,0.39753025,0.390625
10:15:12,30-Sep-21,0.6305,0.624,0.39753025,0.389376
10:15:12,30-Sep-21,0.6305,0.624,0.39753025,0.389376
10:15:12,30-Sep-21,0.6305,0.624,0.39753025,0.389376
10:15:12,30-Sep-21,0.6305,0.623,0.39753025,0.388129
10:15:12,30-Sep-21,0.6305,0.623,0.39753025,0.388129
10:15:12,30-Sep-21,0.6205,0.622,0.38502025,0.386884
10:15:12,30-Sep-21,0.6205,0.622,0.38502025,0.386884
10:15:12,30-Sep-21,0.6205,0.621,0.38502025,0.385641
10:15:12,30-Sep-21,0.6205,0.621,0.38502025,0.385641
10:15:12,30-Sep-21,0.6205,0.62,0.38502025,0.3844
10:15:12,30-Sep-21,0.611,0.62,0.373321,0.3844
10:15:12,30-Sep-21,0.611,0.619,0.373321,0.383161
10:15:12,30-Sep-21,0.611,0.619,0.373321,0.383161
10:15:12,30-Sep-21,0.611,0.618,0.373321,0.381924
10:15:12,30-Sep-21,0.606,0.618,0.367236,0.381924
10:15:12,30-Sep-21,0.606,0.617,0.367236,0.380689
10:15:12,30-Sep-21,0.606,0.617,0.367236,0.380689
10:15:12,30-Sep-21,0.616,0.616,0.379456,0.379456
10:15:12,30-Sep-21,0.616,0.616,0.379456,0.379456
10:15:12,30-Sep-21,0.616,0.615,0.379456,0.378225
10:15:12,30-Sep-21,0.616,0.615,0.379456,0.378225
10:15:12,30-Sep-21,0.616,0.614,0.379456,0.376996
10:15:12,30-Sep-21,0.616,0.614,0.379456,0.376996
10:15:12,30-Sep-21,0.616,0.613,0.379456,0.375769
10:15:12,30-Sep-21,0.6205,0.613,0.38502025,0.375769
10:15:12,30-Sep-21,0.6205,0.612,0.38502025,0.374544
10:15:12,30-Sep-21,0.6205,0.612,0.38502025,0.374544
10:15:12,30-Sep-21,0.6205,0.611,0.38502025,0.373321
10:15:12,30-Sep-21,0.6205,0.611,0.38502025,0.373321
10:15:12,30-Sep-21,0.6205,0.61,0.38502025,0.3721
10:15:12,30-Sep-21,0.6205,0.61,0.38502025,0.3721
10:15:12,30-Sep-21,0.611,0.609,0.373321,0.370881
10:15:12,30-Sep-21,0.601,0.609,0.361201,0.370881
10:15:12,30-Sep-21,0.601,0.608,0.361201,0.369664
10:15:13,30-Sep-21,0.601,0.607,0.361201,0.368449
10:15:13,30-Sep-21,0.601,0.607,0.361201,0.368449
10:15:13,30-Sep-21,0.5965,0.606,0.35581225,0.367236
10:15:13,30-Sep-21,0.5965,0.606,0.35581225,0.367236
10:15:13,30-Sep-21,0.5965,0.605,0.35581225,0.366025
10:15:13,30-Sep-21,0.5965,0.605,0.35581225,0.366025
10:15:13,30-Sep-21,0.5965,0.604,0.35581225,0.364816
10:15:13,30-Sep-21,0.5965,0.603,0.35581225,0.363609
10:15:13,30-Sep-21,0.5965,0.603,0.35581225,0.363609
10:15:13,30-Sep-21,0.611,0.602,0.373321,0.362404
10:15:13,30-Sep-21,0.611,0.602,0.373321,0.362404
10:15:13,30-Sep-21,0.611,0.601,0.373321,0.361201
10:15:13,30-Sep-21,0.611,0.601,0.373321,0.361201
10:15:13,30-Sep-21,0.616,0.6,0.379456,0.36
10:15:13,30-Sep-21,0.611,0.599,0.373321,0.358801
10:15:13,30-Sep-21,0.611,0.599,0.373321,0.358801
10:15:13,30-Sep-21,0.611,0.598,0.373321,0.357604
10:15:13,30-Sep-21,0.606,0.598,0.367236,0.357604
10:15:13,30-Sep-21,0.606,0.597,0.367236,0.356409
10:15:13,30-Sep-21,0.601,0.597,0.361201,0.356409
10:15:13,30-Sep-21,0.5915,0.596,0.34987225,0.355216
10:15:13,30-Sep-21,0.5915,0.596,0.34987225,0.355216
10:15:13,30-Sep-21,0.5865,0.595,0.34398225,0.354025
10:15:13,30-Sep-21,0.5865,0.595,0.34398225,0.354025
10:15:13,30-Sep-21,0.5865,0.595,0.34398225,0.354025
10:15:13,30-Sep-21,0.5815,0.594,0.33814225,0.352836
10:15:13,30-Sep-21,0.5815,0.594,0.33814225,0.352836
10:15:13,30-Sep-21,0.5815,0.593,0.33814225,0.351649
10:15:13,30-Sep-21,0.5865,0.593,0.34398225,0.351649
10:15:13,30-Sep-21,0.5865,0.593,0.34398225,0.351649
10:15:13,30-Sep-21,0.5965,0.593,0.35581225,0.351649
10:15:13,30-Sep-21,0.5965,0.593,0.35581225,0.351649
10:15:13,30-Sep-21,0.5965,0.592,0.35581225,0.350464
10:15:13,30-Sep-21,0.5965,0.592,0.35581225,0.350464
10:15:13,30-Sep-21,0.5965,0.592,0.35581225,0.350464
10:15:13,30-Sep-21,0.5965,0.592,0.35581225,0.350464
10:15:13,30-Sep-21,0.5965,0.592,0.35581225,0.350464
10:15:13,30-Sep-21,0.5965,0.592,0.35581225,0.350464
10:15:13,30-Sep-21,0.5965,0.593,0.35581225,0.351649
10:15:13,30-Sep-21,0.5865,0.593,0.34398225,0.351649
10:15:13,30-Sep-21,0.5865,0.593,0.34398225,0.351649
10:15:13,30-Sep-21,0.5865,0.593,0.34398225,0.351649
10:15:13,30-Sep-21,0.5865,0.593,0.34398225,0.351649
10:15:13,30-Sep-21,0.5815,0.594,0.33814225,0.352836
10:15:13,30-Sep-21,0.5815,0.594,0.33814225,0.352836
10:15:13,30-Sep-21,0.5815,0.594,0.33814225,0.352836
10:15:13,30-Sep-21,0.5965,0.595,0.35581225,0.354025
10:15:13,30-Sep-21,0.601,0.595,0.361201,0.354025
10:15:13,30-Sep-21,0.601,0.596,0.361201,0.355216
10:15:13,30-Sep-21,0.601,0.596,0.361201,0.355216
10:15:13,30-Sep-21,0.606,0.597,0.367236,0.356409
10:15:13,30-Sep-21,0.606,0.597,0.367236,0.356409
10:15:13,30-Sep-21,0.606,0.598,0.367236,0.357604
10:15:13,30-Sep-21,0.606,0.598,0.367236,0.357604
10:15:13,30-Sep-21,0.606,0.599,0.367236,0.358801
10:15:13,30-Sep-21,0.601,0.599,0.361201,0.358801
10:15:13,30-Sep-21,0.601,0.6,0.361201,0.36
10:15:13,30-Sep-21,0.5965,0.601,0.35581225,0.361201
10:15:13,30-Sep-21,0.5965,0.601,0.35581225,0.361201
10:15:13,30-Sep-21,0.5965,0.602,0.35581225,0.362404
10:15:13,30-Sep-21,0.5965,0.603,0.35581225,0.363609
10:15:13,30-Sep-21,0.5965,0.603,0.35581225,0.363609
10:15:13,30-Sep-21,0.5965,0.604,0.35581225,0.364816
10:15:13,30-Sep-21,0.5965,0.604,0.35581225,0.364816
10:15:13,30-Sep-21,0.601,0.605,0.361201,0.366025
10:15:13,30-Sep-21,0.601,0.606,0.361201,0.367236
10:15:13,30-Sep-21,0.601,0.606,0.361201,0.367236
10:15:13,30-Sep-21,0.6205,0.607,0.38502025,0.368449
10:15:13,30-Sep-21,0.6205,0.608,0.38502025,0.369664
10:15:13,30-Sep-21,0.6205,0.608,0.38502025,0.369664
10:15:13,30-Sep-21,0.6255,0.609,0.39125025,0.370881
10:15:13,30-Sep-21,0.6205,0.61,0.38502025,0.3721
10:15:13,30-Sep-21,0.6205,0.61,0.38502025,0.3721
10:15:13,30-Sep-21,0.6205,0.611,0.38502025,0.373321
10:15:13,30-Sep-21,0.616,0.612,0.379456,0.374544
10:15:13,30-Sep-21,0.616,0.612,0.379456,0.374544
10:15:13,30-Sep-21,0.616,0.613,0.379456,0.375769
10:15:13,30-Sep-21,0.611,0.613,0.373321,0.375769
10:15:13,30-Sep-21,0.606,0.614,0.367236,0.376996
10:15:13,30-Sep-21,0.606,0.615,0.367236,0.378225
10:15:13,30-Sep-21,0.606,0.615,0.367236,0.378225
10:15:13,30-Sep-21,0.606,0.616,0.367236,0.379456
10:15:13,30-Sep-21,0.611,0.616,0.373321,0.379456
10:15:13,30-Sep-21,0.611,0.617,0.373321,0.380689
10:15:13,30-Sep-21,0.611,0.618,0.373321,0.381924
10:15:13,30-Sep-21,0.611,0.618,0.373321,0.381924
10:15:13,30-Sep-21,0.611,0.619,0.373321,0.383161
10:15:13,30-Sep-21,0.616,0.62,0.379456,0.3844
10:15:13,30-Sep-21,0.616,0.62,0.379456,0.3844
10:15:13,30-Sep-21,0.6205,0.621,0.38502025,0.385641
10:15:13,30-Sep-21,0.6205,0.621,0.38502025,0.385641
10:15:13,30-Sep-21,0.6305,0.622,0.39753025,0.386884
10:15:13,30-Sep-21,0.6305,0.623,0.39753025,0.388129
10:15:13,30-Sep-21,0.6305,0.623,0.39753025,0.388129
10:15:13,30-Sep-21,0.6255,0.624,0.39125025,0.389376
10:15:13,30-Sep-21,0.6255,0.624,0.39125025,0.389376
10:15:13,30-Sep-21,0.6255,0.625,0.39125025,0.390625
10:15:13,30-Sep-21,0.6205,0.626,0.38502025,0.391876
10:15:13,30-Sep-21,0.6205,0.626,0.38502025,0.391876
10:15:13,30-Sep-21,0.6205,0.627,0.38502025,0.393129
10:15:14,30-Sep-21,0.6205,0.627,0.38502025,0.393129
10:15:14,30-Sep-21,0.616,0.628,0.379456,0.394384
10:15:14,30-Sep-21,0.6205,0.628,0.38502025,0.394384
10:15:14,30-Sep-21,0.6205,0.629,0.38502025,0.395641
10:15:14,30-Sep-21,0.6255,0.629,0.39125025,0.395641
10:15:14,30-Sep-21,0.6255,0.63,0.39125025,0.3969
10:15:14,30-Sep-21,0.6405,0.63,0.41024025,0.3969
10:15:14,30-Sep-21,0.6405,0.63,0.41024025,0.3969
10:15:14,30-Sep-21,0.645,0.631,0.416025,0.398161
10:15:14,30-Sep-21,0.645,0.631,0.416025,0.398161
10:15:14,30-Sep-21,0.645,0.631,0.416025,0.398161
10:15:14,30-Sep-21,0.645,0.631,0.416025,0.398161
10:15:14,30-Sep-21,0.645,0.632,0.416025,0.399424
10:15:14,30-Sep-21,0.645,0.632,0.416025,0.399424
10:15:14,30-Sep-21,0.6405,0.632,0.41024025,0.399424
10:15:14,30-Sep-21,0.6355,0.632,0.40386025,0.399424
10:15:14,30-Sep-21,0.6255,0.632,0.39125025,0.399424
10:15:14,30-Sep-21,0.6255,0.633,0.39125025,0.400689
10:15:14,30-Sep-21,0.6255,0.633,0.39125025,0.400689
10:15:14,30-Sep-21,0.6205,0.633,0.38502025,0.400689
10:15:14,30-Sep-21,0.6205,0.633,0.38502025,0.400689
10:15:14,30-Sep-21,0.6205,0.633,0.38502025,0.400689
10:15:14,30-Sep-21,0.6255,0.633,0.39125025,0.400689
10:15:14,30-Sep-21,0.6305,0.633,0.39753025,0.400689
10:15:14,30-Sep-21,0.6305,0.633,0.39753025,0.400689
10:15:14,30-Sep-21,0.645,0.633,0.416025,0.400689
10:15:14,30-Sep-21,0.645,0.633,0.416025,0.400689
10:15:14,30-Sep-21,0.6405,0.633,0.41024025,0.400689
10:15:14,30-Sep-21,0.6405,0.633,0.41024025,0.400689
10:15:14,30-Sep-21,0.6405,0.633,0.41024025,0.400689
10:15:14,30-Sep-21,0.6355,0.633,0.40386025,0.400689
10:15:14,30-Sep-21,0.6355,0.633,0.40386025,0.400689
10:15:14,30-Sep-21,0.6255,0.633,0.39125025,0.400689
10:15:14,30-Sep-21,0.6255,0.633,0.39125025,0.400689
10:15:14,30-Sep-21,0.6255,0.633,0.39125025,0.400689
10:15:14,30-Sep-21,0.6205,0.633,0.38502025,0.400689
10:15:14,30-Sep-21,0.6205,0.633,0.38502025,0.400689
10:15:14,30-Sep-21,0.6205,0.633,0.38502025,0.400689
10:15:14,30-Sep-21,0.616,0.633,0.379456,0.400689
10:15:14,30-Sep-21,0.6205,0.633,0.38502025,0.400689
10:15:14,30-Sep-21,0.6305,0.633,0.39753025,0.400689
10:15:14,30-Sep-21,0.6305,0.633,0.39753025,0.400689
10:15:14,30-Sep-21,0.6405,0.633,0.41024025,0.400689
10:15:14,30-Sep-21,0.6405,0.633,0.41024025,0.400689
10:15:14,30-Sep-21,0.6405,0.633,0.41024025,0.400689
10:15:14,30-Sep-21,0.645,0.633,0.416025,0.400689
10:15:14,30-Sep-21,0.645,0.633,0.416025,0.400689
10:15:14,30-Sep-21,0.6405,0.633,0.41024025,0.400689
10:15:14,30-Sep-21,0.6405,0.633,0.41024025,0.400689
10:15:14,30-Sep-21,0.6405,0.634,0.41024025,0.401956
10:15:14,30-Sep-21,0.6405,0.634,0.41024025,0.401956
10:15:14,30-Sep-21,0.6405,0.634,0.41024025,0.401956
10:15:14,30-Sep-21,0.6355,0.634,0.40386025,0.401956
10:15:14,30-Sep-21,0.6255,0.634,0.39125025,0.401956
10:15:14,30-Sep-21,0.6255,0.634,0.39125025,0.401956
10:15:14,30-Sep-21,0.6255,0.635,0.39125025,0.403225
10:15:14,30-Sep-21,0.6255,0.635,0.39125025,0.403225
10:15:14,30-Sep-21,0.6255,0.635,0.39125025,0.403225
10:15:14,30-Sep-21,0.6255,0.635,0.39125025,0.403225
10:15:14,30-Sep-21,0.6305,0.636,0.39753025,0.404496
10:15:14,30-Sep-21,0.645,0.636,0.416025,0.404496
10:15:14,30-Sep-21,0.645,0.636,0.416025,0.404496
10:15:14,30-Sep-21,0.645,0.637,0.416025,0.405769
10:15:14,30-Sep-21,0.645,0.637,0.416025,0.405769
10:15:14,30-Sep-21,0.65,0.637,0.4225,0.405769
10:15:14,30-Sep-21,0.645,0.638,0.416025,0.407044
10:15:14,30-Sep-21,0.645,0.638,0.416025,0.407044
10:15:14,30-Sep-21,0.6405,0.638,0.41024025,0.407044
10:15:14,30-Sep-21,0.6405,0.639,0.41024025,0.408321
10:15:14,30-Sep-21,0.6355,0.639,0.40386025,0.408321
10:15:14,30-Sep-21,0.6355,0.64,0.40386025,0.4096
10:15:14,30-Sep-21,0.6305,0.64,0.39753025,0.4096
10:15:14,30-Sep-21,0.6255,0.64,0.39125025,0.4096
10:15:14,30-Sep-21,0.6255,0.641,0.39125025,0.410881
10:15:14,30-Sep-21,0.6255,0.641,0.39125025,0.410881
10:15:14,30-Sep-21,0.6255,0.642,0.39125025,0.412164
10:15:14,30-Sep-21,0.6255,0.642,0.39125025,0.412164
10:15:14,30-Sep-21,0.6405,0.643,0.41024025,0.413449
10:15:14,30-Sep-21,0.6405,0.643,0.41024025,0.413449
10:15:14,30-Sep-21,0.645,0.644,0.416025,0.414736
10:15:14,30-Sep-21,0.655,0.644,0.429025,0.414736
10:15:14,30-Sep-21,0.655,0.645,0.429025,0.416025
10:15:14,30-Sep-21,0.66,0.645,0.4356,0.416025
10:15:14,30-Sep-21,0.66,0.646,0.4356,0.417316
10:15:14,30-Sep-21,0.66,0.646,0.4356,0.417316
10:15:14,30-Sep-21,0.655,0.646,0.429025,0.417316
10:15:14,30-Sep-21,0.655,0.647,0.429025,0.418609
10:15:14,30-Sep-21,0.655,0.647,0.429025,0.418609
10:15:14,30-Sep-21,0.655,0.648,0.429025,0.419904
10:15:14,30-Sep-21,0.655,0.648,0.429025,0.419904
10:15:14,30-Sep-21,0.65,0.649,0.4225,0.421201
10:15:14,30-Sep-21,0.65,0.649,0.4225,0.421201
10:15:14,30-Sep-21,0.6405,0.649,0.41024025,0.421201
10:15:14,30-Sep-21,0.6405,0.65,0.41024025,0.4225
10:15:14,30-Sep-21,0.6405,0.65,0.41024025,0.4225
10:15:14,30-Sep-21,0.6405,0.65,0.41024025,0.4225
10:15:14,30-Sep-21,0.6405,0.651,0.41024025,0.423801
10:15:15,30-Sep-21,0.6405,0.651,0.41024025,0.423801
10:15:15,30-Sep-21,0.6405,0.651,0.41024025,0.423801
10:15:15,30-Sep-21,0.6405,0.651,0.41024025,0.423801
10:15:15,30-Sep-21,0.6405,0.652,0.41024025,0.425104
10:15:15,30-Sep-21,0.6405,0.652,0.41024025,0.425104
10:15:15,30-Sep-21,0.66,0.652,0.4356,0.425104
10:15:15,30-Sep-21,0.66,0.652,0.4356,0.425104
10:15:15,30-Sep-21,0.66,0.653,0.4356,0.426409
10:15:15,30-Sep-21,0.6645,0.653,0.44156025,0.426409
10:15:15,30-Sep-21,0.6645,0.653,0.44156025,0.426409
10:15:15,30-Sep-21,0.6645,0.653,0.44156025,0.426409
10:15:15,30-Sep-21,0.6645,0.653,0.44156025,0.426409
10:15:15,30-Sep-21,0.6645,0.653,0.44156025,0.426409
10:15:15,30-Sep-21,0.6645,0.653,0.44156025,0.426409
10:15:15,30-Sep-21,0.66,0.653,0.4356,0.426409
10:15:15,30-Sep-21,0.66,0.653,0.4356,0.426409
10:15:15,30-Sep-21,0.66,0.653,0.4356,0.426409
10:15:15,30-Sep-21,0.65,0.653,0.4225,0.426409
10:15:15,30-Sep-21,0.65,0.653,0.4225,0.426409
10:15:15,30-Sep-21,0.65,0.653,0.4225,0.426409
10:15:15,30-Sep-21,0.65,0.653,0.4225,0.426409
10:15:15,30-Sep-21,0.65,0.653,0.4225,0.426409
10:15:15,30-Sep-21,0.65,0.653,0.4225,0.426409
10:15:15,30-Sep-21,0.65,0.653,0.4225,0.426409
10:15:15,30-Sep-21,0.65,0.653,0.4225,0.426409
10:15:15,30-Sep-21,0.6405,0.653,0.41024025,0.426409
10:15:15,30-Sep-21,0.6405,0.653,0.41024025,0.426409
10:15:15,30-Sep-21,0.6355,0.653,0.40386025,0.426409
10:15:15,30-Sep-21,0.6355,0.653,0.40386025,0.426409
10:15:15,30-Sep-21,0.6405,0.653,0.41024025,0.426409
10:15:15,30-Sep-21,0.645,0.653,0.416025,0.426409
10:15:15,30-Sep-21,0.645,0.653,0.416025,0.426409
10:15:15,30-Sep-21,0.66,0.653,0.4356,0.426409
10:15:15,30-Sep-21,0.66,0.653,0.4356,0.426409
10:15:15,30-Sep-21,0.66,0.653,0.4356,0.426409
10:15:15,30-Sep-21,0.66,0.653,0.4356,0.426409
10:15:15,30-Sep-21,0.66,0.653,0.4356,0.426409
10:15:15,30-Sep-21,0.66,0.653,0.4356,0.426409
10:15:15,30-Sep-21,0.66,0.653,0.4356,0.426409
10:15:15,30-Sep-21,0.66,0.653,0.4356,0.426409
10:15:15,30-Sep-21,0.66,0.653,0.4356,0.426409
10:15:15,30-Sep-21,0.66,0.653,0.4356,0.426409
10:15:15,30-Sep-21,0.66,0.653,0.4356,0.426409
10:15:15,30-Sep-21,0.66,0.652,0.4356,0.425104
10:15:15,30-Sep-21,0.66,0.652,0.4356,0.425104
10:15:15,30-Sep-21,0.655,0.652,0.429025,0.425104
10:15:15,30-Sep-21,0.655,0.652,0.429025,0.425104
10:15:15,30-Sep-21,0.655,0.652,0.429025,0.425104
10:15:15,30-Sep-21,0.655,0.652,0.429025,0.425104
10:15:15,30-Sep-21,0.65,0.652,0.4225,0.425104
10:15:15,30-Sep-21,0.65,0.652,0.4225,0.425104
10:15:15,30-Sep-21,0.65,0.652,0.4225,0.425104
10:15:15,30-Sep-21,0.65,0.652,0.4225,0.425104
10:15:15,30-Sep-21,0.65,0.652,0.4225,0.425104
10:15:15,30-Sep-21,0.645,0.652,0.416025,0.425104
10:15:15,30-Sep-21,0.645,0.652,0.416025,0.425104
10:15:15,30-Sep-21,0.6405,0.652,0.41024025,0.425104
10:15:15,30-Sep-21,0.6405,0.652,0.41024025,0.425104
10:15:15,30-Sep-21,0.6405,0.652,0.41024025,0.425104
10:15:15,30-Sep-21,0.6405,0.652,0.41024025,0.425104
10:15:15,30-Sep-21,0.6405,0.652,0.41024025,0.425104
10:15:15,30-Sep-21,0.6405,0.652,0.41024025,0.425104
10:15:15,30-Sep-21,0.65,0.652,0.4225,0.425104
10:15:15,30-Sep-21,0.65,0.652,0.4225,0.425104
10:15:15,30-Sep-21,0.65,0.652,0.4225,0.425104
10:15:15,30-Sep-21,0.65,0.652,0.4225,0.425104
10:15:15,30-Sep-21,0.65,0.651,0.4225,0.423801
10:15:15,30-Sep-21,0.65,0.651,0.4225,0.423801
10:15:15,30-Sep-21,0.655,0.651,0.429025,0.423801
10:15:15,30-Sep-21,0.655,0.651,0.429025,0.423801
10:15:15,30-Sep-21,0.655,0.651,0.429025,0.423801
10:15:15,30-Sep-21,0.66,0.651,0.4356,0.423801
10:15:15,30-Sep-21,0.66,0.651,0.4356,0.423801
10:15:15,30-Sep-21,0.66,0.651,0.4356,0.423801
10:15:15,30-Sep-21,0.6645,0.651,0.44156025,0.423801
10:15:15,30-Sep-21,0.6645,0.651,0.44156025,0.423801
10:15:15,30-Sep-21,0.6645,0.651,0.44156025,0.423801
10:15:15,30-Sep-21,0.66,0.651,0.4356,0.423801
10:15:15,30-Sep-21,0.66,0.651,0.4356,0.423801
10:15:15,30-Sep-21,0.655,0.65,0.429025,0.4225
10:15:15,30-Sep-21,0.655,0.65,0.429025,0.4225
10:15:15,30-Sep-21,0.655,0.65,0.429025,0.4225
10:15:15,30-Sep-21,0.65,0.65,0.4225,0.4225
10:15:15,30-Sep-21,0.65,0.65,0.4225,0.4225
10:15:15,30-Sep-21,0.6405,0.649,0.41024025,0.421201
10:15:15,30-Sep-21,0.6405,0.649,0.41024025,0.421201
10:15:15,30-Sep-21,0.6405,0.649,0.41024025,0.421201
10:15:15,30-Sep-21,0.6355,0.649,0.40386025,0.421201
10:15:15,30-Sep-21,0.6355,0.649,0.40386025,0.421201
10:15:15,30-Sep-21,0.6355,0.648,0.40386025,0.419904
10:15:15,30-Sep-21,0.6405,0.648,0.41024025,0.419904
10:15:15,30-Sep-21,0.6405,0.648,0.41024025,0.419904
10:15:15,30-Sep-21,0.6405,0.648,0.41024025,0.419904
10:15:15,30-Sep-21,0.645,0.648,0.416025,0.419904
10:15:15,30-Sep-21,0.655,0.648,0.429025,0.419904
10:15:15,30-Sep-21,0.655,0.647,0.429025,0.418609
10:15:15,30-Sep-21,0.66,0.647,0.4356,0.418609
10:15:15,30-Sep-21,0.66,0.647,0.4356,0.418609
10:15:15,30-Sep-21,0.655,0.647,0.429025,0.418609
10:15:15,30-Sep-21,0.655,0.647,0.429025,0.418609
10:15:15,30-Sep-21,0.655,0.647,0.429025,0.418609
10:15:15,30-Sep-21,0.655,0.647,0.429025,0.418609
10:15:15,30-Sep-21,0.655,0.647,0.429025,0.418609
10:15:15,30-Sep-21,0.6405,0.647,0.41024025,0.418609
10:15:15,30-Sep-21,0.6405,0.647,0.41024025,0.418609
10:15:15,30-Sep-21,0.6405,0.647,0.41024025,0.418609
10:15:15,30-Sep-21,0.6405,0.647,0.41024025,0.418609
10:15:15,30-Sep-21,0.6355,0.647,0.40386025,0.418609
10:15:15,30-Sep-21,0.6355,0.647,0.40386025,0.418609
10:15:15,30-Sep-21,0.6355,0.647,0.40386025,0.418609
10:15:15,30-Sep-21,0.6355,0.647,0.40386025,0.418609
10:15:15,30-Sep-21,0.6355,0.647,0.40386025,0.418609
10:15:15,30-Sep-21,0.6355,0.648,0.40386025,0.419904
10:15:15,30-Sep-21,0.645,0.648,0.416025,0.419904
10:15:15,30-Sep-21,0.655,0.648,0.429025,0.419904
10:15:15,30-Sep-21,0.655,0.648,0.429025,0.419904
10:15:15,30-Sep-21,0.66,0.649,0.4356,0.421201
10:15:15,30-Sep-21,0.66,0.649,0.4356,0.421201
10:15:15,30-Sep-21,0.66,0.649,0.4356,0.421201
10:15:15,30-Sep-21,0.66,0.65,0.4356,0.4225
10:15:15,30-Sep-21,0.66,0.65,0.4356,0.4225
10:15:15,30-Sep-21,0.66,0.65,0.4356,0.4225
10:15:15,30-Sep-21,0.66,0.651,0.4356,0.423801
10:15:15,30-Sep-21,0.655,0.651,0.429025,0.423801
10:15:15,30-Sep-21,0.655,0.651,0.429025,0.423801
10:15:15,30-Sep-21,0.645,0.652,0.416025,0.425104
10:15:15,30-Sep-21,0.645,0.652,0.416025,0.425104
10:15:15,30-Sep-21,0.645,0.653,0.416025,0.426409
10:15:15,30-Sep-21,0.645,0.653,0.416025,0.426409
10:15:15,30-Sep-21,0.645,0.654,0.416025,0.427716
10:15:15,30-Sep-21,0.645,0.654,0.416025,0.427716
10:15:15,30-Sep-21,0.645,0.655,0.416025,0.429025
10:15:15,30-Sep-21,0.645,0.655,0.416025,0.429025
10:15:15,30-Sep-21,0.645,0.655,0.416025,0.429025
10:15:15,30-Sep-21,0.65,0.656,0.4225,0.430336
10:15:16,30-Sep-21,0.65,0.656,0.4225,0.430336
10:15:16,30-Sep-21,0.65,0.657,0.4225,0.431649
10:15:16,30-Sep-21,0.65,0.657,0.4225,0.431649
10:15:16,30-Sep-21,0.65,0.658,0.4225,0.432964
10:15:16,30-Sep-21,0.65,0.658,0.4225,0.432964
10:15:16,30-Sep-21,0.65,0.658,0.4225,0.432964
10:15:16,30-Sep-21,0.6695,0.659,0.44823025,0.434281
10:15:16,30-Sep-21,0.6745,0.659,0.45495025,0.434281
10:15:16,30-Sep-21,0.6745,0.659,0.45495025,0.434281
10:15:16,30-Sep-21,0.6745,0.66,0.45495025,0.4356
10:15:16,30-Sep-21,0.6745,0.66,0.45495025,0.4356
10:15:16,30-Sep-21,0.6745,0.66,0.45495025,0.4356
10:15:16,30-Sep-21,0.6745,0.66,0.45495025,0.4356
10:15:16,30-Sep-21,0.6745,0.66,0.45495025,0.4356
10:15:16,30-Sep-21,0.6745,0.66,0.45495025,0.4356
10:15:16,30-Sep-21,0.6645,0.66,0.44156025,0.4356
10:15:16,30-Sep-21,0.6645,0.66,0.44156025,0.4356
10:15:16,30-Sep-21,0.66,0.66,0.4356,0.4356
10:15:16,30-Sep-21,0.66,0.66,0.4356,0.4356
10:15:16,30-Sep-21,0.66,0.66,0.4356,0.4356
10:15:16,30-Sep-21,0.655,0.66,0.429025,0.4356
10:15:16,30-Sep-21,0.655,0.66,0.429025,0.4356
10:15:16,30-Sep-21,0.645,0.659,0.416025,0.434281
10:15:16,30-Sep-21,0.645,0.659,0.416025,0.434281
10:15:16,30-Sep-21,0.645,0.659,0.416025,0.434281
10:15:16,30-Sep-21,0.645,0.659,0.416025,0.434281
10:15:16,30-Sep-21,0.65,0.658,0.4225,0.432964
10:15:16,30-Sep-21,0.65,0.658,0.4225,0.432964
10:15:16,30-Sep-21,0.655,0.658,0.429025,0.432964
10:15:16,30-Sep-21,0.655,0.657,0.429025,0.431649
10:15:16,30-Sep-21,0.655,0.657,0.429025,0.431649
10:15:16,30-Sep-21,0.6645,0.657,0.44156025,0.431649
10:15:16,30-Sep-21,0.6645,0.656,0.44156025,0.430336
10:15:16,30-Sep-21,0.6645,0.656,0.44156025,0.430336
10:15:16,30-Sep-21,0.6645,0.656,0.44156025,0.430336
10:15:16,30-Sep-21,0.6645,0.655,0.44156025,0.429025
10:15:16,30-Sep-21,0.6645,0.655,0.44156025,0.429025
10:15:16,30-Sep-21,0.66,0.654,0.4356,0.427716
10:15:16,30-Sep-21,0.66,0.654,0.4356,0.427716
10:15:16,30-Sep-21,0.66,0.654,0.4356,0.427716
10:15:16,30-Sep-21,0.66,0.653,0.4356,0.426409
10:15:16,30-Sep-21,0.66,0.653,0.4356,0.426409
10:15:16,30-Sep-21,0.66,0.653,0.4356,0.426409
10:15:16,30-Sep-21,0.655,0.653,0.429025,0.426409
10:15:16,30-Sep-21,0.655,0.652,0.429025,0.425104
10:15:16,30-Sep-21,0.655,0.652,0.429025,0.425104
10:15:16,30-Sep-21,0.655,0.652,0.429025,0.425104
10:15:16,30-Sep-21,0.645,0.652,0.416025,0.425104
10:15:16,30-Sep-21,0.645,0.652,0.416025,0.425104
10:15:16,30-Sep-21,0.645,0.652,0.416025,0.425104
10:15:16,30-Sep-21,0.645,0.652,0.416025,0.425104
10:15:16,30-Sep-21,0.645,0.652,0.416025,0.425104
10:15:16,30-Sep-21,0.6405,0.652,0.41024025,0.425104
10:15:16,30-Sep-21,0.6405,0.652,0.41024025,0.425104
10:15:16,30-Sep-21,0.6405,0.653,0.41024025,0.426409
10:15:16,30-Sep-21,0.6405,0.653,0.41024025,0.426409
10:15:16,30-Sep-21,0.6405,0.653,0.41024025,0.426409
10:15:16,30-Sep-21,0.6405,0.654,0.41024025,0.427716
10:15:16,30-Sep-21,0.6405,0.654,0.41024025,0.427716
10:15:16,30-Sep-21,0.66,0.655,0.4356,0.429025
10:15:16,30-Sep-21,0.66,0.656,0.4356,0.430336
10:15:16,30-Sep-21,0.66,0.656,0.4356,0.430336
10:15:16,30-Sep-21,0.6645,0.657,0.44156025,0.431649
10:15:16,30-Sep-21,0.6645,0.658,0.44156025,0.432964
10:15:16,30-Sep-21,0.6745,0.659,0.45495025,0.434281
10:15:16,30-Sep-21,0.6745,0.66,0.45495025,0.4356
10:15:16,30-Sep-21,0.6695,0.661,0.44823025,0.436921
10:15:16,30-Sep-21,0.6695,0.662,0.44823025,0.438244
10:15:16,30-Sep-21,0.6695,0.663,0.44823025,0.439569
10:15:16,30-Sep-21,0.6695,0.664,0.44823025,0.440896
10:15:16,30-Sep-21,0.6695,0.666,0.44823025,0.443556
10:15:16,30-Sep-21,0.6645,0.667,0.44156025,0.444889
10:15:16,30-Sep-21,0.6645,0.668,0.44156025,0.446224
10:15:16,30-Sep-21,0.6645,0.669,0.44156025,0.447561
10:15:16,30-Sep-21,0.6645,0.671,0.44156025,0.450241
10:15:16,30-Sep-21,0.66,0.672,0.4356,0.451584
10:15:16,30-Sep-21,0.66,0.673,0.4356,0.452929
10:15:16,30-Sep-21,0.66,0.675,0.4356,0.455625
10:15:16,30-Sep-21,0.66,0.676,0.4356,0.456976
10:15:16,30-Sep-21,0.6645,0.677,0.44156025,0.458329
10:15:16,30-Sep-21,0.6645,0.679,0.44156025,0.461041
10:15:16,30-Sep-21,0.6645,0.68,0.44156025,0.4624
10:15:16,30-Sep-21,0.6745,0.682,0.45495025,0.465124
10:15:16,30-Sep-21,0.6745,0.683,0.45495025,0.466489
10:15:16,30-Sep-21,0.694,0.684,0.481636,0.467856
10:15:16,30-Sep-21,0.694,0.686,0.481636,0.470596
10:15:16,30-Sep-21,0.694,0.687,0.481636,0.471969
10:15:16,30-Sep-21,0.694,0.688,0.481636,0.473344
10:15:16,30-Sep-21,0.694,0.689,0.481636,0.474721
10:15:16,30-Sep-21,0.704,0.69,0.495616,0.4761
10:15:16,30-Sep-21,0.704,0.691,0.495616,0.477481
10:15:16,30-Sep-21,0.7085,0.692,0.50197225,0.478864
10:15:16,30-Sep-21,0.7085,0.693,0.50197225,0.480249
10:15:16,30-Sep-21,0.7085,0.694,0.50197225,0.481636
10:15:16,30-Sep-21,0.7085,0.695,0.50197225,0.483025
10:15:16,30-Sep-21,0.7085,0.696,0.50197225,0.484416
10:15:16,30-Sep-21,0.7085,0.697,0.50197225,0.485809
10:15:16,30-Sep-21,0.7085,0.697,0.50197225,0.485809
10:15:16,30-Sep-21,0.7085,0.698,0.50197225,0.487204
10:15:16,30-Sep-21,0.699,0.698,0.488601,0.487204
10:15:16,30-Sep-21,0.699,0.699,0.488601,0.488601
10:15:16,30-Sep-21,0.699,0.699,0.488601,0.488601
10:15:16,30-Sep-21,0.699,0.699,0.488601,0.488601
10:15:16,30-Sep-21,0.699,0.7,0.488601,0.49
10:15:16,30-Sep-21,0.694,0.7,0.481636,0.49
10:15:16,30-Sep-21,0.694,0.7,0.481636,0.49
10:15:16,30-Sep-21,0.694,0.7,0.481636,0.49
10:15:16,30-Sep-21,0.689,0.7,0.474721,0.49
10:15:16,30-Sep-21,0.689,0.7,0.474721,0.49
10:15:16,30-Sep-21,0.6845,0.7,0.46854025,0.49
10:15:16,30-Sep-21,0.6845,0.7,0.46854025,0.49
10:15:16,30-Sep-21,0.694,0.7,0.481636,0.49
10:15:16,30-Sep-21,0.694,0.699,0.481636,0.488601
10:15:16,30-Sep-21,0.694,0.699,0.481636,0.488601
10:15:16,30-Sep-21,0.699,0.699,0.488601,0.488601
10:15:16,30-Sep-21,0.699,0.699,0.488601,0.488601
10:15:16,30-Sep-21,0.699,0.698,0.488601,0.487204
10:15:16,30-Sep-21,0.704,0.698,0.495616,0.487204
10:15:16,30-Sep-21,0.704,0.698,0.495616,0.487204
10:15:16,30-Sep-21,0.704,0.697,0.495616,0.485809
10:15:16,30-Sep-21,0.699,0.697,0.488601,0.485809
10:15:16,30-Sep-21,0.699,0.696,0.488601,0.484416
10:15:16,30-Sep-21,0.699,0.696,0.488601,0.484416
10:15:16,30-Sep-21,0.699,0.696,0.488601,0.484416
10:15:16,30-Sep-21,0.699,0.695,0.488601,0.483025
10:15:16,30-Sep-21,0.699,0.695,0.488601,0.483025
10:15:16,30-Sep-21,0.6845,0.694,0.46854025,0.481636
10:15:16,30-Sep-21,0.6845,0.693,0.46854025,0.480249
10:15:16,30-Sep-21,0.6845,0.693,0.46854025,0.480249
10:15:16,30-Sep-21,0.6845,0.692,0.46854025,0.478864
10:15:16,30-Sep-21,0.6845,0.692,0.46854025,0.478864
10:15:16,30-Sep-21,0.6845,0.691,0.46854025,0.477481
10:15:17,30-Sep-21,0.6845,0.691,0.46854025,0.477481
10:15:17,30-Sep-21,0.689,0.69,0.474721,0.4761
10:15:17,30-Sep-21,0.704,0.69,0.495616,0.4761
10:15:17,30-Sep-21,0.704,0.689,0.495616,0.474721
10:15:17,30-Sep-21,0.704,0.688,0.495616,0.473344
10:15:17,30-Sep-21,0.704,0.688,0.495616,0.473344
10:15:17,30-Sep-21,0.704,0.687,0.495616,0.471969
10:15:17,30-Sep-21,0.704,0.687,0.495616,0.471969
10:15:17,30-Sep-21,0.689,0.686,0.474721,0.470596
10:15:17,30-Sep-21,0.689,0.686,0.474721,0.470596
10:15:17,30-Sep-21,0.6795,0.685,0.46172025,0.469225
10:15:17,30-Sep-21,0.6795,0.685,0.46172025,0.469225
10:15:17,30-Sep-21,0.6745,0.684,0.45495025,0.467856
10:15:17,30-Sep-21,0.6745,0.684,0.45495025,0.467856
10:15:17,30-Sep-21,0.6745,0.683,0.45495025,0.466489
10:15:17,30-Sep-21,0.6695,0.683,0.44823025,0.466489
10:15:17,30-Sep-21,0.6695,0.682,0.44823025,0.465124
10:15:17,30-Sep-21,0.6695,0.682,0.44823025,0.465124
10:15:17,30-Sep-21,0.6695,0.682,0.44823025,0.465124
10:15:17,30-Sep-21,0.6695,0.681,0.44823025,0.463761
10:15:17,30-Sep-21,0.6695,0.681,0.44823025,0.463761
10:15:17,30-Sep-21,0.6695,0.681,0.44823025,0.463761
10:15:17,30-Sep-21,0.6695,0.68,0.44823025,0.4624
10:15:17,30-Sep-21,0.6695,0.68,0.44823025,0.4624
10:15:17,30-Sep-21,0.6845,0.68,0.46854025,0.4624
10:15:17,30-Sep-21,0.6845,0.679,0.46854025,0.461041
10:15:17,30-Sep-21,0.6845,0.679,0.46854025,0.461041
10:15:17,30-Sep-21,0.6845,0.679,0.46854025,0.461041
10:15:17,30-Sep-21,0.6845,0.679,0.46854025,0.461041
10:15:17,30-Sep-21,0.6845,0.678,0.46854025,0.459684
10:15:17,30-Sep-21,0.694,0.678,0.481636,0.459684
10:15:17,30-Sep-21,0.694,0.678,0.481636,0.459684
10:15:17,30-Sep-21,0.694,0.678,0.481636,0.459684
10:15:17,30-Sep-21,0.694,0.677,0.481636,0.458329
10:15:17,30-Sep-21,0.694,0.677,0.481636,0.458329
10:15:17,30-Sep-21,0.689,0.677,0.474721,0.458329
10:15:17,30-Sep-21,0.689,0.676,0.474721,0.456976
10:15:17,30-Sep-21,0.6845,0.676,0.46854025,0.456976
10:15:17,30-Sep-21,0.6845,0.676,0.46854025,0.456976
10:15:17,30-Sep-21,0.6745,0.676,0.45495025,0.456976
10:15:17,30-Sep-21,0.6695,0.675,0.44823025,0.455625
10:15:17,30-Sep-21,0.6645,0.675,0.44156025,0.455625
10:15:17,30-Sep-21,0.6645,0.675,0.44156025,0.455625
10:15:17,30-Sep-21,0.6645,0.675,0.44156025,0.455625
10:15:17,30-Sep-21,0.6645,0.675,0.44156025,0.455625
10:15:17,30-Sep-21,0.6645,0.674,0.44156025,0.454276
10:15:17,30-Sep-21,0.6645,0.674,0.44156025,0.454276
10:15:17,30-Sep-21,0.6645,0.674,0.44156025,0.454276
10:15:17,30-Sep-21,0.6645,0.674,0.44156025,0.454276
10:15:17,30-Sep-21,0.6645,0.674,0.44156025,0.454276
10:15:17,30-Sep-21,0.6745,0.674,0.45495025,0.454276
10:15:17,30-Sep-21,0.6745,0.674,0.45495025,0.454276
10:15:17,30-Sep-21,0.6795,0.674,0.46172025,0.454276
10:15:17,30-Sep-21,0.6795,0.674,0.46172025,0.454276
10:15:17,30-Sep-21,0.6795,0.674,0.46172025,0.454276
10:15:17,30-Sep-21,0.6795,0.674,0.46172025,0.454276
10:15:17,30-Sep-21,0.6845,0.674,0.46854025,0.454276
10:15:17,30-Sep-21,0.6845,0.674,0.46854025,0.454276
10:15:17,30-Sep-21,0.6845,0.674,0.46854025,0.454276
10:15:17,30-Sep-21,0.6745,0.674,0.45495025,0.454276
10:15:17,30-Sep-21,0.6745,0.674,0.45495025,0.454276
10:15:17,30-Sep-21,0.6695,0.675,0.44823025,0.455625
10:15:17,30-Sep-21,0.6695,0.675,0.44823025,0.455625
10:15:17,30-Sep-21,0.6645,0.675,0.44156025,0.455625
10:15:17,30-Sep-21,0.6645,0.675,0.44156025,0.455625
10:15:17,30-Sep-21,0.6645,0.675,0.44156025,0.455625
10:15:17,30-Sep-21,0.6645,0.676,0.44156025,0.456976
10:15:17,30-Sep-21,0.66,0.676,0.4356,0.456976
10:15:17,30-Sep-21,0.66,0.676,0.4356,0.456976
10:15:17,30-Sep-21,0.66,0.677,0.4356,0.458329
