Time,Date,EMG Value (V),Filtered Value (V),,
10:13:11,30-Sep-21,1.08,1.082,1.1664,1.170724
10:13:11,30-Sep-21,1.08,1.095,1.1664,1.199025
10:13:11,30-Sep-21,1.08,1.108,1.1664,1.227664
10:13:11,30-Sep-21,1.085,1.121,1.177225,1.256641
10:13:11,30-Sep-21,1.1145,1.134,1.24211025,1.285956
10:13:11,30-Sep-21,1.1435,1.147,1.30759225,1.315609
10:13:11,30-Sep-21,1.1925,1.16,1.42205625,1.3456
10:13:11,30-Sep-21,1.1925,1.172,1.42205625,1.373584
10:13:11,30-Sep-21,1.2365,1.185,1.52893225,1.404225
10:13:11,30-Sep-21,1.271,1.197,1.615441,1.432809
10:13:11,30-Sep-21,1.271,1.209,1.615441,1.461681
10:13:11,30-Sep-21,1.2805,1.221,1.63968025,1.490841
10:13:11,30-Sep-21,1.2805,1.233,1.63968025,1.520289
10:13:11,30-Sep-21,1.3,1.244,1.69,1.547536
10:13:11,30-Sep-21,1.3,1.255,1.69,1.575025
10:13:11,30-Sep-21,1.3,1.265,1.69,1.600225
10:13:11,30-Sep-21,1.3,1.275,1.69,1.625625
10:13:11,30-Sep-21,1.3,1.285,1.69,1.651225
10:13:11,30-Sep-21,1.315,1.294,1.729225,1.674436
10:13:11,30-Sep-21,1.315,1.303,1.729225,1.697809
10:13:11,30-Sep-21,1.3295,1.311,1.76757025,1.718721
10:13:11,30-Sep-21,1.3295,1.319,1.76757025,1.739761
10:13:11,30-Sep-21,1.349,1.326,1.819801,1.758276
10:13:11,30-Sep-21,1.349,1.333,1.819801,1.776889
10:13:11,30-Sep-21,1.349,1.339,1.819801,1.792921
10:13:11,30-Sep-21,1.349,1.345,1.819801,1.809025
10:13:11,30-Sep-21,1.349,1.351,1.819801,1.825201
10:13:11,30-Sep-21,1.349,1.356,1.819801,1.838736
10:13:11,30-Sep-21,1.349,1.36,1.819801,1.8496
10:13:11,30-Sep-21,1.349,1.365,1.819801,1.863225
10:13:11,30-Sep-21,1.3585,1.368,1.84552225,1.871424
10:13:11,30-Sep-21,1.3585,1.372,1.84552225,1.882384
10:13:11,30-Sep-21,1.3585,1.375,1.84552225,1.890625
10:13:11,30-Sep-21,1.3585,1.377,1.84552225,1.896129
10:13:11,30-Sep-21,1.383,1.38,1.912689,1.9044
10:13:11,30-Sep-21,1.383,1.382,1.912689,1.909924
10:13:11,30-Sep-21,1.383,1.383,1.912689,1.912689
10:13:11,30-Sep-21,1.383,1.385,1.912689,1.918225
10:13:11,30-Sep-21,1.388,1.386,1.926544,1.920996
10:13:11,30-Sep-21,1.388,1.387,1.926544,1.923769
10:13:11,30-Sep-21,1.388,1.387,1.926544,1.923769
10:13:11,30-Sep-21,1.383,1.387,1.912689,1.923769
10:13:11,30-Sep-21,1.383,1.388,1.912689,1.926544
10:13:11,30-Sep-21,1.383,1.388,1.912689,1.926544
10:13:12,30-Sep-21,1.383,1.387,1.912689,1.923769
10:13:12,30-Sep-21,1.383,1.387,1.912689,1.923769
10:13:12,30-Sep-21,1.383,1.386,1.912689,1.920996
10:13:12,30-Sep-21,1.383,1.385,1.912689,1.918225
10:13:12,30-Sep-21,1.383,1.385,1.912689,1.918225
10:13:12,30-Sep-21,1.3635,1.384,1.85913225,1.915456
10:13:12,30-Sep-21,1.3635,1.383,1.85913225,1.912689
10:13:12,30-Sep-21,1.3635,1.381,1.85913225,1.907161
10:13:12,30-Sep-21,1.354,1.38,1.833316,1.9044
10:13:12,30-Sep-21,1.354,1.379,1.833316,1.901641
10:13:12,30-Sep-21,1.344,1.378,1.806336,1.898884
10:13:12,30-Sep-21,1.344,1.376,1.806336,1.893376
10:13:12,30-Sep-21,1.344,1.375,1.806336,1.890625
10:13:12,30-Sep-21,1.349,1.373,1.819801,1.885129
10:13:12,30-Sep-21,1.349,1.372,1.819801,1.882384
10:13:12,30-Sep-21,1.349,1.37,1.819801,1.8769
10:13:12,30-Sep-21,1.349,1.368,1.819801,1.871424
10:13:12,30-Sep-21,1.349,1.367,1.819801,1.868689
10:13:12,30-Sep-21,1.349,1.365,1.819801,1.863225
10:13:12,30-Sep-21,1.3735,1.363,1.88650225,1.857769
10:13:12,30-Sep-21,1.3735,1.361,1.88650225,1.852321
10:13:12,30-Sep-21,1.3735,1.359,1.88650225,1.846881
10:13:12,30-Sep-21,1.383,1.357,1.912689,1.841449
10:13:12,30-Sep-21,1.383,1.355,1.912689,1.836025
10:13:12,30-Sep-21,1.388,1.353,1.926544,1.830609
10:13:12,30-Sep-21,1.388,1.351,1.926544,1.825201
10:13:12,30-Sep-21,1.388,1.349,1.926544,1.819801
10:13:12,30-Sep-21,1.383,1.347,1.912689,1.814409
10:13:12,30-Sep-21,1.383,1.345,1.912689,1.809025
10:13:12,30-Sep-21,1.383,1.342,1.912689,1.800964
10:13:12,30-Sep-21,1.3585,1.34,1.84552225,1.7956
10:13:12,30-Sep-21,1.3585,1.338,1.84552225,1.790244
10:13:12,30-Sep-21,1.3585,1.336,1.84552225,1.784896
10:13:12,30-Sep-21,1.3585,1.333,1.84552225,1.776889
10:13:12,30-Sep-21,1.3345,1.331,1.78089025,1.771561
10:13:12,30-Sep-21,1.3345,1.328,1.78089025,1.763584
10:13:12,30-Sep-21,1.305,1.326,1.703025,1.758276
10:13:12,30-Sep-21,1.305,1.324,1.703025,1.752976
10:13:12,30-Sep-21,1.295,1.322,1.677025,1.747684
10:13:12,30-Sep-21,1.295,1.319,1.677025,1.739761
10:13:12,30-Sep-21,1.295,1.317,1.677025,1.734489
10:13:12,30-Sep-21,1.295,1.315,1.677025,1.729225
10:13:12,30-Sep-21,1.295,1.313,1.677025,1.723969
10:13:12,30-Sep-21,1.2855,1.311,1.65251025,1.718721
10:13:12,30-Sep-21,1.2855,1.309,1.65251025,1.713481
10:13:12,30-Sep-21,1.2855,1.307,1.65251025,1.708249
10:13:12,30-Sep-21,1.2855,1.305,1.65251025,1.703025
10:13:12,30-Sep-21,1.2855,1.304,1.65251025,1.700416
10:13:12,30-Sep-21,1.2905,1.302,1.66539025,1.695204
10:13:12,30-Sep-21,1.2905,1.301,1.66539025,1.692601
10:13:12,30-Sep-21,1.315,1.3,1.729225,1.69
10:13:12,30-Sep-21,1.315,1.298,1.729225,1.684804
10:13:12,30-Sep-21,1.3195,1.297,1.74108025,1.682209
10:13:12,30-Sep-21,1.3195,1.296,1.74108025,1.679616
10:13:12,30-Sep-21,1.3195,1.296,1.74108025,1.679616
10:13:12,30-Sep-21,1.3195,1.295,1.74108025,1.677025
10:13:12,30-Sep-21,1.3195,1.294,1.74108025,1.674436
10:13:12,30-Sep-21,1.3195,1.294,1.74108025,1.674436
10:13:12,30-Sep-21,1.3195,1.294,1.74108025,1.674436
10:13:12,30-Sep-21,1.315,1.294,1.729225,1.674436
10:13:12,30-Sep-21,1.315,1.294,1.729225,1.674436
10:13:12,30-Sep-21,1.315,1.294,1.729225,1.674436
10:13:12,30-Sep-21,1.3,1.295,1.69,1.677025
10:13:12,30-Sep-21,1.3,1.295,1.69,1.677025
10:13:12,30-Sep-21,1.2905,1.296,1.66539025,1.679616
10:13:12,30-Sep-21,1.2905,1.297,1.66539025,1.682209
10:13:12,30-Sep-21,1.2905,1.298,1.66539025,1.684804
10:13:12,30-Sep-21,1.2855,1.299,1.65251025,1.687401
10:13:12,30-Sep-21,1.2855,1.301,1.65251025,1.692601
10:13:12,30-Sep-21,1.2855,1.303,1.65251025,1.697809
10:13:12,30-Sep-21,1.2755,1.304,1.62690025,1.700416
10:13:12,30-Sep-21,1.2755,1.306,1.62690025,1.705636
10:13:12,30-Sep-21,1.2755,1.308,1.62690025,1.710864
10:13:12,30-Sep-21,1.2755,1.311,1.62690025,1.718721
10:13:12,30-Sep-21,1.271,1.313,1.615441,1.723969
10:13:12,30-Sep-21,1.271,1.316,1.615441,1.731856
10:13:12,30-Sep-21,1.2855,1.318,1.65251025,1.737124
10:13:12,30-Sep-21,1.2855,1.321,1.65251025,1.745041
10:13:12,30-Sep-21,1.2855,1.324,1.65251025,1.752976
10:13:12,30-Sep-21,1.3195,1.327,1.74108025,1.760929
10:13:12,30-Sep-21,1.3195,1.329,1.74108025,1.766241
10:13:12,30-Sep-21,1.3195,1.332,1.74108025,1.774224
10:13:12,30-Sep-21,1.3195,1.335,1.74108025,1.782225
10:13:12,30-Sep-21,1.3585,1.338,1.84552225,1.790244
10:13:12,30-Sep-21,1.3585,1.341,1.84552225,1.798281
10:13:12,30-Sep-21,1.3585,1.344,1.84552225,1.806336
10:13:12,30-Sep-21,1.3735,1.346,1.88650225,1.811716
10:13:12,30-Sep-21,1.3735,1.349,1.88650225,1.819801
10:13:12,30-Sep-21,1.3735,1.351,1.88650225,1.825201
10:13:12,30-Sep-21,1.3735,1.353,1.88650225,1.830609
10:13:12,30-Sep-21,1.3735,1.355,1.88650225,1.836025
10:13:12,30-Sep-21,1.3735,1.357,1.88650225,1.841449
10:13:12,30-Sep-21,1.3735,1.359,1.88650225,1.846881
10:13:12,30-Sep-21,1.3735,1.36,1.88650225,1.8496
10:13:12,30-Sep-21,1.3735,1.361,1.88650225,1.852321
10:13:12,30-Sep-21,1.3735,1.362,1.88650225,1.855044
10:13:12,30-Sep-21,1.3735,1.362,1.88650225,1.855044
10:13:12,30-Sep-21,1.3585,1.362,1.84552225,1.855044
10:13:12,30-Sep-21,1.3585,1.362,1.84552225,1.855044
10:13:12,30-Sep-21,1.3585,1.361,1.84552225,1.852321
10:13:12,30-Sep-21,1.354,1.36,1.833316,1.8496
10:13:12,30-Sep-21,1.354,1.359,1.833316,1.846881
10:13:12,30-Sep-21,1.354,1.357,1.833316,1.841449
10:13:12,30-Sep-21,1.339,1.355,1.792921,1.836025
10:13:12,30-Sep-21,1.339,1.352,1.792921,1.827904
10:13:12,30-Sep-21,1.3245,1.35,1.75430025,1.8225
10:13:12,30-Sep-21,1.3245,1.346,1.75430025,1.811716
10:13:12,30-Sep-21,1.3245,1.342,1.75430025,1.800964
10:13:12,30-Sep-21,1.3245,1.338,1.75430025,1.790244
10:13:12,30-Sep-21,1.3245,1.333,1.75430025,1.776889
10:13:12,30-Sep-21,1.3245,1.328,1.75430025,1.763584
10:13:12,30-Sep-21,1.339,1.323,1.792921,1.750329
10:13:12,30-Sep-21,1.3345,1.317,1.78089025,1.734489
10:13:12,30-Sep-21,1.3345,1.31,1.78089025,1.7161
10:13:12,30-Sep-21,1.3345,1.304,1.78089025,1.700416
10:13:12,30-Sep-21,1.3345,1.296,1.78089025,1.679616
10:13:12,30-Sep-21,1.3295,1.289,1.76757025,1.661521
10:13:12,30-Sep-21,1.3295,1.281,1.76757025,1.640961
10:13:12,30-Sep-21,1.3295,1.272,1.76757025,1.617984
10:13:12,30-Sep-21,1.3,1.264,1.69,1.597696
10:13:12,30-Sep-21,1.3,1.255,1.69,1.575025
10:13:12,30-Sep-21,1.3,1.245,1.69,1.550025
10:13:12,30-Sep-21,1.2365,1.236,1.52893225,1.527696
10:13:12,30-Sep-21,1.2365,1.226,1.52893225,1.503076
10:13:12,30-Sep-21,1.2365,1.216,1.52893225,1.478656
10:13:12,30-Sep-21,1.2365,1.206,1.52893225,1.454436
10:13:12,30-Sep-21,1.2365,1.195,1.52893225,1.428025
10:13:12,30-Sep-21,1.173,1.185,1.375929,1.404225
10:13:12,30-Sep-21,1.173,1.174,1.375929,1.378276
10:13:12,30-Sep-21,1.173,1.164,1.375929,1.354896
10:13:12,30-Sep-21,1.173,1.153,1.375929,1.329409
10:13:12,30-Sep-21,1.1145,1.142,1.24211025,1.304164
10:13:12,30-Sep-21,1.1145,1.132,1.24211025,1.281424
10:13:12,30-Sep-21,1.1145,1.121,1.24211025,1.256641
10:13:12,30-Sep-21,1.0555,1.111,1.11408025,1.234321
10:13:12,30-Sep-21,1.0555,1.1,1.11408025,1.21
10:13:12,30-Sep-21,1.0555,1.09,1.11408025,1.1881
10:13:12,30-Sep-21,1.0555,1.08,1.11408025,1.1664
10:13:12,30-Sep-21,1.0165,1.07,1.03327225,1.1449
10:13:12,30-Sep-21,1.0165,1.061,1.03327225,1.125721
10:13:12,30-Sep-21,1.0165,1.052,1.03327225,1.106704
10:13:12,30-Sep-21,0.9875,1.043,0.97515625,1.087849
10:13:12,30-Sep-21,0.9875,1.034,0.97515625,1.069156
10:13:12,30-Sep-21,0.9875,1.026,0.97515625,1.052676
10:13:12,30-Sep-21,0.9875,1.018,0.97515625,1.036324
10:13:12,30-Sep-21,0.9875,1.01,0.97515625,1.0201
10:13:12,30-Sep-21,0.9875,1.002,0.97515625,1.004004
10:13:12,30-Sep-21,0.9875,0.995,0.97515625,0.990025
10:13:12,30-Sep-21,0.9675,0.988,0.93605625,0.976144
10:13:12,30-Sep-21,0.9675,0.982,0.93605625,0.964324
10:13:12,30-Sep-21,0.9675,0.976,0.93605625,0.952576
10:13:12,30-Sep-21,0.9675,0.97,0.93605625,0.9409
10:13:12,30-Sep-21,0.9675,0.964,0.93605625,0.929296
10:13:12,30-Sep-21,0.9675,0.959,0.93605625,0.919681
10:13:12,30-Sep-21,0.9675,0.954,0.93605625,0.910116
10:13:12,30-Sep-21,0.953,0.949,0.908209,0.900601
10:13:12,30-Sep-21,0.953,0.944,0.908209,0.891136
10:13:12,30-Sep-21,0.953,0.94,0.908209,0.8836
10:13:12,30-Sep-21,0.948,0.936,0.898704,0.876096
10:13:12,30-Sep-21,0.948,0.932,0.898704,0.868624
10:13:12,30-Sep-21,0.948,0.928,0.898704,0.861184
10:13:12,30-Sep-21,0.9335,0.925,0.87142225,0.855625
10:13:12,30-Sep-21,0.9335,0.922,0.87142225,0.850084
10:13:12,30-Sep-21,0.9335,0.918,0.87142225,0.842724
10:13:12,30-Sep-21,0.9335,0.915,0.87142225,0.837225
10:13:12,30-Sep-21,0.9335,0.913,0.87142225,0.833569
10:13:12,30-Sep-21,0.9335,0.91,0.87142225,0.8281
10:13:13,30-Sep-21,0.9335,0.907,0.87142225,0.822649
10:13:13,30-Sep-21,0.924,0.905,0.853776,0.819025
10:13:13,30-Sep-21,0.924,0.902,0.853776,0.813604
10:13:13,30-Sep-21,0.924,0.9,0.853776,0.81
10:13:13,30-Sep-21,0.8995,0.898,0.80910025,0.806404
10:13:13,30-Sep-21,0.8995,0.896,0.80910025,0.802816
10:13:13,30-Sep-21,0.8995,0.894,0.80910025,0.799236
10:13:13,30-Sep-21,0.8895,0.892,0.79121025,0.795664
10:13:13,30-Sep-21,0.8895,0.89,0.79121025,0.7921
10:13:13,30-Sep-21,0.8895,0.888,0.79121025,0.788544
10:13:13,30-Sep-21,0.8895,0.886,0.79121025,0.784996
10:13:13,30-Sep-21,0.87,0.884,0.7569,0.781456
10:13:13,30-Sep-21,0.87,0.882,0.7569,0.777924
10:13:13,30-Sep-21,0.87,0.881,0.7569,0.776161
10:13:13,30-Sep-21,0.87,0.879,0.7569,0.772641
10:13:13,30-Sep-21,0.87,0.877,0.7569,0.769129
10:13:13,30-Sep-21,0.87,0.876,0.7569,0.767376
10:13:13,30-Sep-21,0.86,0.874,0.7396,0.763876
10:13:13,30-Sep-21,0.86,0.873,0.7396,0.762129
10:13:13,30-Sep-21,0.86,0.871,0.7396,0.758641
10:13:13,30-Sep-21,0.86,0.87,0.7396,0.7569
10:13:13,30-Sep-21,0.86,0.868,0.7396,0.753424
10:13:13,30-Sep-21,0.86,0.867,0.7396,0.751689
10:13:13,30-Sep-21,0.86,0.865,0.7396,0.748225
10:13:13,30-Sep-21,0.86,0.864,0.7396,0.746496
10:13:13,30-Sep-21,0.87,0.862,0.7569,0.743044
10:13:13,30-Sep-21,0.87,0.861,0.7569,0.741321
10:13:13,30-Sep-21,0.87,0.859,0.7569,0.737881
10:13:13,30-Sep-21,0.87,0.858,0.7569,0.736164
10:13:13,30-Sep-21,0.87,0.857,0.7569,0.734449
10:13:13,30-Sep-21,0.865,0.855,0.748225,0.731025
10:13:13,30-Sep-21,0.865,0.854,0.748225,0.729316
10:13:13,30-Sep-21,0.865,0.852,0.748225,0.725904
10:13:13,30-Sep-21,0.86,0.851,0.7396,0.724201
10:13:13,30-Sep-21,0.86,0.85,0.7396,0.7225
10:13:13,30-Sep-21,0.86,0.848,0.7396,0.719104
10:13:13,30-Sep-21,0.8455,0.847,0.71487025,0.717409
10:13:13,30-Sep-21,0.8455,0.846,0.71487025,0.715716
10:13:13,30-Sep-21,0.8455,0.844,0.71487025,0.712336
10:13:13,30-Sep-21,0.8455,0.843,0.71487025,0.710649
10:13:13,30-Sep-21,0.8455,0.842,0.71487025,0.708964
10:13:13,30-Sep-21,0.8405,0.841,0.70644025,0.707281
10:13:13,30-Sep-21,0.8405,0.839,0.70644025,0.703921
10:13:13,30-Sep-21,0.8405,0.838,0.70644025,0.702244
10:13:13,30-Sep-21,0.8405,0.837,0.70644025,0.700569
10:13:13,30-Sep-21,0.826,0.836,0.682276,0.698896
10:13:13,30-Sep-21,0.826,0.835,0.682276,0.697225
10:13:13,30-Sep-21,0.826,0.834,0.682276,0.695556
10:13:13,30-Sep-21,0.826,0.833,0.682276,0.693889
10:13:13,30-Sep-21,0.826,0.832,0.682276,0.692224
10:13:13,30-Sep-21,0.826,0.831,0.682276,0.690561
10:13:13,30-Sep-21,0.816,0.831,0.665856,0.690561
10:13:13,30-Sep-21,0.816,0.83,0.665856,0.6889
10:13:13,30-Sep-21,0.816,0.829,0.665856,0.687241
10:13:13,30-Sep-21,0.816,0.828,0.665856,0.685584
10:13:13,30-Sep-21,0.816,0.828,0.665856,0.685584
10:13:13,30-Sep-21,0.816,0.827,0.665856,0.683929
10:13:13,30-Sep-21,0.8115,0.827,0.65853225,0.683929
10:13:13,30-Sep-21,0.8115,0.826,0.65853225,0.682276
10:13:13,30-Sep-21,0.8115,0.826,0.65853225,0.682276
10:13:13,30-Sep-21,0.826,0.826,0.682276,0.682276
10:13:13,30-Sep-21,0.826,0.825,0.682276,0.680625
10:13:13,30-Sep-21,0.826,0.825,0.682276,0.680625
10:13:13,30-Sep-21,0.836,0.825,0.698896,0.680625
10:13:13,30-Sep-21,0.836,0.825,0.698896,0.680625
10:13:13,30-Sep-21,0.836,0.824,0.698896,0.678976
10:13:13,30-Sep-21,0.836,0.824,0.698896,0.678976
10:13:13,30-Sep-21,0.836,0.824,0.698896,0.678976
10:13:13,30-Sep-21,0.836,0.824,0.698896,0.678976
10:13:13,30-Sep-21,0.836,0.824,0.698896,0.678976
10:13:13,30-Sep-21,0.836,0.824,0.698896,0.678976
10:13:13,30-Sep-21,0.836,0.824,0.698896,0.678976
10:13:13,30-Sep-21,0.836,0.823,0.698896,0.677329
10:13:13,30-Sep-21,0.836,0.823,0.698896,0.677329
10:13:13,30-Sep-21,0.836,0.823,0.698896,0.677329
10:13:13,30-Sep-21,0.836,0.823,0.698896,0.677329
10:13:13,30-Sep-21,0.836,0.823,0.698896,0.677329
10:13:13,30-Sep-21,0.836,0.823,0.698896,0.677329
10:13:13,30-Sep-21,0.821,0.823,0.674041,0.677329
10:13:13,30-Sep-21,0.821,0.823,0.674041,0.677329
10:13:13,30-Sep-21,0.821,0.823,0.674041,0.677329
10:13:13,30-Sep-21,0.821,0.823,0.674041,0.677329
10:13:13,30-Sep-21,0.821,0.823,0.674041,0.677329
10:13:13,30-Sep-21,0.816,0.823,0.665856,0.677329
10:13:13,30-Sep-21,0.8065,0.823,0.65044225,0.677329
10:13:13,30-Sep-21,0.8065,0.823,0.65044225,0.677329
10:13:13,30-Sep-21,0.8065,0.823,0.65044225,0.677329
10:13:13,30-Sep-21,0.8065,0.824,0.65044225,0.678976
10:13:13,30-Sep-21,0.8065,0.824,0.65044225,0.678976
10:13:13,30-Sep-21,0.8065,0.824,0.65044225,0.678976
10:13:13,30-Sep-21,0.8065,0.824,0.65044225,0.678976
10:13:13,30-Sep-21,0.8115,0.824,0.65853225,0.678976
10:13:13,30-Sep-21,0.8115,0.824,0.65853225,0.678976
10:13:13,30-Sep-21,0.8115,0.824,0.65853225,0.678976
10:13:13,30-Sep-21,0.816,0.825,0.665856,0.680625
10:13:13,30-Sep-21,0.816,0.825,0.665856,0.680625
10:13:13,30-Sep-21,0.816,0.825,0.665856,0.680625
10:13:13,30-Sep-21,0.826,0.825,0.682276,0.680625
10:13:13,30-Sep-21,0.826,0.825,0.682276,0.680625
10:13:13,30-Sep-21,0.826,0.825,0.682276,0.680625
10:13:13,30-Sep-21,0.8405,0.825,0.70644025,0.680625
10:13:13,30-Sep-21,0.8405,0.825,0.70644025,0.680625
10:13:13,30-Sep-21,0.8405,0.825,0.70644025,0.680625
10:13:13,30-Sep-21,0.8405,0.825,0.70644025,0.680625
10:13:13,30-Sep-21,0.8405,0.825,0.70644025,0.680625
10:13:13,30-Sep-21,0.8405,0.825,0.70644025,0.680625
10:13:13,30-Sep-21,0.8405,0.825,0.70644025,0.680625
10:13:13,30-Sep-21,0.8405,0.824,0.70644025,0.678976
10:13:13,30-Sep-21,0.836,0.824,0.698896,0.678976
10:13:13,30-Sep-21,0.836,0.824,0.698896,0.678976
10:13:13,30-Sep-21,0.836,0.823,0.698896,0.677329
10:13:13,30-Sep-21,0.831,0.823,0.690561,0.677329
10:13:13,30-Sep-21,0.831,0.823,0.690561,0.677329
10:13:13,30-Sep-21,0.831,0.822,0.690561,0.675684
10:13:13,30-Sep-21,0.831,0.822,0.690561,0.675684
10:13:13,30-Sep-21,0.821,0.821,0.674041,0.674041
10:13:13,30-Sep-21,0.821,0.821,0.674041,0.674041
10:13:13,30-Sep-21,0.821,0.82,0.674041,0.6724
10:13:13,30-Sep-21,0.821,0.819,0.674041,0.670761
10:13:13,30-Sep-21,0.821,0.819,0.674041,0.670761
10:13:13,30-Sep-21,0.821,0.818,0.674041,0.669124
10:13:13,30-Sep-21,0.8115,0.818,0.65853225,0.669124
10:13:13,30-Sep-21,0.8115,0.817,0.65853225,0.667489
10:13:13,30-Sep-21,0.8115,0.816,0.65853225,0.665856
10:13:13,30-Sep-21,0.8015,0.816,0.64240225,0.665856
10:13:13,30-Sep-21,0.8015,0.815,0.64240225,0.664225
10:13:13,30-Sep-21,0.8015,0.815,0.64240225,0.664225
10:13:13,30-Sep-21,0.8015,0.814,0.64240225,0.662596
10:13:13,30-Sep-21,0.7965,0.814,0.63441225,0.662596
10:13:13,30-Sep-21,0.7965,0.813,0.63441225,0.660969
10:13:13,30-Sep-21,0.7965,0.813,0.63441225,0.660969
10:13:13,30-Sep-21,0.7965,0.813,0.63441225,0.660969
10:13:13,30-Sep-21,0.7965,0.812,0.63441225,0.659344
10:13:13,30-Sep-21,0.7965,0.812,0.63441225,0.659344
10:13:13,30-Sep-21,0.7965,0.812,0.63441225,0.659344
10:13:13,30-Sep-21,0.8115,0.811,0.65853225,0.657721
10:13:13,30-Sep-21,0.8115,0.811,0.65853225,0.657721
10:13:13,30-Sep-21,0.8115,0.811,0.65853225,0.657721
10:13:13,30-Sep-21,0.8115,0.811,0.65853225,0.657721
10:13:13,30-Sep-21,0.8115,0.811,0.65853225,0.657721
10:13:13,30-Sep-21,0.8115,0.81,0.65853225,0.6561
10:13:13,30-Sep-21,0.816,0.81,0.665856,0.6561
10:13:13,30-Sep-21,0.816,0.81,0.665856,0.6561
10:13:13,30-Sep-21,0.816,0.81,0.665856,0.6561
10:13:13,30-Sep-21,0.821,0.81,0.674041,0.6561
10:13:13,30-Sep-21,0.821,0.81,0.674041,0.6561
10:13:13,30-Sep-21,0.821,0.81,0.674041,0.6561
10:13:13,30-Sep-21,0.821,0.81,0.674041,0.6561
10:13:13,30-Sep-21,0.821,0.809,0.674041,0.654481
10:13:13,30-Sep-21,0.821,0.809,0.674041,0.654481
10:13:13,30-Sep-21,0.821,0.809,0.674041,0.654481
10:13:13,30-Sep-21,0.821,0.809,0.674041,0.654481
10:13:13,30-Sep-21,0.821,0.809,0.674041,0.654481
10:13:13,30-Sep-21,0.821,0.809,0.674041,0.654481
10:13:13,30-Sep-21,0.816,0.809,0.665856,0.654481
10:13:13,30-Sep-21,0.816,0.809,0.665856,0.654481
10:13:13,30-Sep-21,0.816,0.808,0.665856,0.652864
10:13:13,30-Sep-21,0.816,0.808,0.665856,0.652864
10:13:13,30-Sep-21,0.8115,0.808,0.65853225,0.652864
10:13:13,30-Sep-21,0.8115,0.808,0.65853225,0.652864
10:13:13,30-Sep-21,0.8115,0.808,0.65853225,0.652864
10:13:13,30-Sep-21,0.8015,0.808,0.64240225,0.652864
10:13:13,30-Sep-21,0.8015,0.808,0.64240225,0.652864
10:13:13,30-Sep-21,0.8015,0.808,0.64240225,0.652864
10:13:13,30-Sep-21,0.8015,0.808,0.64240225,0.652864
10:13:13,30-Sep-21,0.8015,0.808,0.64240225,0.652864
10:13:13,30-Sep-21,0.8015,0.808,0.64240225,0.652864
10:13:13,30-Sep-21,0.8015,0.808,0.64240225,0.652864
10:13:13,30-Sep-21,0.7965,0.809,0.63441225,0.654481
10:13:13,30-Sep-21,0.7965,0.809,0.63441225,0.654481
10:13:13,30-Sep-21,0.7965,0.809,0.63441225,0.654481
10:13:13,30-Sep-21,0.7965,0.809,0.63441225,0.654481
10:13:13,30-Sep-21,0.7965,0.81,0.63441225,0.6561
10:13:13,30-Sep-21,0.7965,0.81,0.63441225,0.6561
10:13:13,30-Sep-21,0.7965,0.81,0.63441225,0.6561
10:13:13,30-Sep-21,0.7965,0.811,0.63441225,0.657721
10:13:13,30-Sep-21,0.7965,0.811,0.63441225,0.657721
10:13:13,30-Sep-21,0.7965,0.811,0.63441225,0.657721
10:13:13,30-Sep-21,0.8015,0.812,0.64240225,0.659344
10:13:13,30-Sep-21,0.8015,0.812,0.64240225,0.659344
10:13:13,30-Sep-21,0.8015,0.813,0.64240225,0.660969
10:13:13,30-Sep-21,0.821,0.813,0.674041,0.660969
10:13:13,30-Sep-21,0.821,0.814,0.674041,0.662596
10:13:13,30-Sep-21,0.821,0.814,0.674041,0.662596
10:13:13,30-Sep-21,0.821,0.815,0.674041,0.664225
10:13:13,30-Sep-21,0.826,0.815,0.682276,0.664225
10:13:13,30-Sep-21,0.826,0.815,0.682276,0.664225
10:13:13,30-Sep-21,0.826,0.816,0.682276,0.665856
10:13:13,30-Sep-21,0.831,0.816,0.690561,0.665856
10:13:13,30-Sep-21,0.831,0.816,0.690561,0.665856
10:13:13,30-Sep-21,0.831,0.817,0.690561,0.667489
10:13:13,30-Sep-21,0.831,0.817,0.690561,0.667489
10:13:13,30-Sep-21,0.831,0.817,0.690561,0.667489
10:13:13,30-Sep-21,0.831,0.817,0.690561,0.667489
10:13:13,30-Sep-21,0.831,0.817,0.690561,0.667489
10:13:13,30-Sep-21,0.831,0.817,0.690561,0.667489
10:13:13,30-Sep-21,0.831,0.817,0.690561,0.667489
10:13:13,30-Sep-21,0.821,0.817,0.674041,0.667489
10:13:13,30-Sep-21,0.821,0.817,0.674041,0.667489
10:13:13,30-Sep-21,0.821,0.817,0.674041,0.667489
10:13:14,30-Sep-21,0.821,0.817,0.674041,0.667489
10:13:14,30-Sep-21,0.816,0.817,0.665856,0.667489
10:13:14,30-Sep-21,0.816,0.817,0.665856,0.667489
10:13:14,30-Sep-21,0.816,0.816,0.665856,0.665856
10:13:14,30-Sep-21,0.8115,0.816,0.65853225,0.665856
10:13:14,30-Sep-21,0.8115,0.816,0.65853225,0.665856
10:13:14,30-Sep-21,0.8115,0.816,0.65853225,0.665856
10:13:14,30-Sep-21,0.8115,0.815,0.65853225,0.664225
10:13:14,30-Sep-21,0.8115,0.815,0.65853225,0.664225
10:13:14,30-Sep-21,0.8115,0.815,0.65853225,0.664225
10:13:14,30-Sep-21,0.8115,0.815,0.65853225,0.664225
10:13:14,30-Sep-21,0.8015,0.814,0.64240225,0.662596
10:13:14,30-Sep-21,0.8015,0.814,0.64240225,0.662596
10:13:14,30-Sep-21,0.8015,0.814,0.64240225,0.662596
10:13:14,30-Sep-21,0.7965,0.814,0.63441225,0.662596
10:13:14,30-Sep-21,0.7965,0.813,0.63441225,0.660969
10:13:14,30-Sep-21,0.7965,0.813,0.63441225,0.660969
10:13:14,30-Sep-21,0.8015,0.813,0.64240225,0.660969
10:13:14,30-Sep-21,0.8015,0.813,0.64240225,0.660969
10:13:14,30-Sep-21,0.8015,0.812,0.64240225,0.659344
10:13:14,30-Sep-21,0.8065,0.812,0.65044225,0.659344
10:13:14,30-Sep-21,0.8065,0.812,0.65044225,0.659344
10:13:14,30-Sep-21,0.8065,0.812,0.65044225,0.659344
10:13:14,30-Sep-21,0.8065,0.812,0.65044225,0.659344
10:13:14,30-Sep-21,0.821,0.812,0.674041,0.659344
10:13:14,30-Sep-21,0.821,0.811,0.674041,0.657721
10:13:14,30-Sep-21,0.821,0.811,0.674041,0.657721
10:13:14,30-Sep-21,0.821,0.811,0.674041,0.657721
10:13:14,30-Sep-21,0.821,0.811,0.674041,0.657721
10:13:14,30-Sep-21,0.821,0.811,0.674041,0.657721
10:13:14,30-Sep-21,0.821,0.811,0.674041,0.657721
10:13:14,30-Sep-21,0.821,0.81,0.674041,0.6561
10:13:14,30-Sep-21,0.821,0.81,0.674041,0.6561
10:13:14,30-Sep-21,0.821,0.81,0.674041,0.6561
10:13:14,30-Sep-21,0.821,0.81,0.674041,0.6561
10:13:14,30-Sep-21,0.821,0.809,0.674041,0.654481
10:13:14,30-Sep-21,0.821,0.809,0.674041,0.654481
10:13:14,30-Sep-21,0.816,0.809,0.665856,0.654481
10:13:14,30-Sep-21,0.816,0.809,0.665856,0.654481
10:13:14,30-Sep-21,0.816,0.808,0.665856,0.652864
10:13:14,30-Sep-21,0.816,0.808,0.665856,0.652864
10:13:14,30-Sep-21,0.816,0.808,0.665856,0.652864
10:13:14,30-Sep-21,0.8015,0.808,0.64240225,0.652864
10:13:14,30-Sep-21,0.8015,0.807,0.64240225,0.651249
10:13:14,30-Sep-21,0.8015,0.807,0.64240225,0.651249
10:13:14,30-Sep-21,0.7965,0.807,0.63441225,0.651249
10:13:14,30-Sep-21,0.7965,0.807,0.63441225,0.651249
10:13:14,30-Sep-21,0.792,0.806,0.627264,0.649636
10:13:14,30-Sep-21,0.792,0.806,0.627264,0.649636
10:13:14,30-Sep-21,0.792,0.806,0.627264,0.649636
10:13:14,30-Sep-21,0.792,0.806,0.627264,0.649636
10:13:14,30-Sep-21,0.792,0.806,0.627264,0.649636
10:13:14,30-Sep-21,0.792,0.805,0.627264,0.648025
10:13:14,30-Sep-21,0.792,0.805,0.627264,0.648025
10:13:14,30-Sep-21,0.792,0.805,0.627264,0.648025
10:13:14,30-Sep-21,0.8015,0.805,0.64240225,0.648025
10:13:14,30-Sep-21,0.8015,0.805,0.64240225,0.648025
10:13:14,30-Sep-21,0.8015,0.805,0.64240225,0.648025
10:13:14,30-Sep-21,0.8065,0.805,0.65044225,0.648025
10:13:14,30-Sep-21,0.8065,0.804,0.65044225,0.646416
10:13:14,30-Sep-21,0.8065,0.804,0.65044225,0.646416
10:13:14,30-Sep-21,0.816,0.804,0.665856,0.646416
10:13:14,30-Sep-21,0.816,0.804,0.665856,0.646416
10:13:14,30-Sep-21,0.816,0.804,0.665856,0.646416
10:13:14,30-Sep-21,0.816,0.804,0.665856,0.646416
10:13:14,30-Sep-21,0.816,0.804,0.665856,0.646416
10:13:14,30-Sep-21,0.816,0.804,0.665856,0.646416
10:13:14,30-Sep-21,0.816,0.803,0.665856,0.644809
10:13:14,30-Sep-21,0.816,0.803,0.665856,0.644809
10:13:14,30-Sep-21,0.8115,0.803,0.65853225,0.644809
10:13:14,30-Sep-21,0.8115,0.803,0.65853225,0.644809
10:13:14,30-Sep-21,0.8115,0.803,0.65853225,0.644809
10:13:14,30-Sep-21,0.8115,0.802,0.65853225,0.643204
10:13:14,30-Sep-21,0.8115,0.802,0.65853225,0.643204
10:13:14,30-Sep-21,0.8065,0.802,0.65044225,0.643204
10:13:14,30-Sep-21,0.8065,0.802,0.65044225,0.643204
10:13:14,30-Sep-21,0.792,0.802,0.627264,0.643204
10:13:14,30-Sep-21,0.792,0.801,0.627264,0.641601
10:13:14,30-Sep-21,0.792,0.801,0.627264,0.641601
10:13:14,30-Sep-21,0.787,0.801,0.619369,0.641601
10:13:14,30-Sep-21,0.787,0.801,0.619369,0.641601
10:13:14,30-Sep-21,0.787,0.801,0.619369,0.641601
10:13:14,30-Sep-21,0.787,0.8,0.619369,0.64
10:13:14,30-Sep-21,0.787,0.8,0.619369,0.64
10:13:14,30-Sep-21,0.787,0.8,0.619369,0.64
10:13:14,30-Sep-21,0.787,0.8,0.619369,0.64
10:13:14,30-Sep-21,0.787,0.8,0.619369,0.64
10:13:14,30-Sep-21,0.787,0.8,0.619369,0.64
10:13:14,30-Sep-21,0.787,0.799,0.619369,0.638401
10:13:14,30-Sep-21,0.787,0.799,0.619369,0.638401
10:13:14,30-Sep-21,0.8015,0.799,0.64240225,0.638401
10:13:14,30-Sep-21,0.8015,0.799,0.64240225,0.638401
10:13:14,30-Sep-21,0.8065,0.799,0.65044225,0.638401
10:13:14,30-Sep-21,0.8065,0.799,0.65044225,0.638401
10:13:14,30-Sep-21,0.8065,0.798,0.65044225,0.636804
10:13:14,30-Sep-21,0.8115,0.798,0.65853225,0.636804
10:13:14,30-Sep-21,0.8115,0.798,0.65853225,0.636804
10:13:14,30-Sep-21,0.8115,0.798,0.65853225,0.636804
10:13:14,30-Sep-21,0.8115,0.798,0.65853225,0.636804
10:13:14,30-Sep-21,0.8115,0.797,0.65853225,0.635209
10:13:14,30-Sep-21,0.8115,0.797,0.65853225,0.635209
10:13:14,30-Sep-21,0.8115,0.797,0.65853225,0.635209
10:13:14,30-Sep-21,0.8115,0.797,0.65853225,0.635209
10:13:14,30-Sep-21,0.8065,0.796,0.65044225,0.633616
10:13:14,30-Sep-21,0.8065,0.796,0.65044225,0.633616
10:13:14,30-Sep-21,0.8065,0.796,0.65044225,0.633616
10:13:14,30-Sep-21,0.7965,0.795,0.63441225,0.632025
10:13:14,30-Sep-21,0.7965,0.795,0.63441225,0.632025
10:13:14,30-Sep-21,0.7965,0.795,0.63441225,0.632025
10:13:14,30-Sep-21,0.792,0.795,0.627264,0.632025
10:13:14,30-Sep-21,0.792,0.794,0.627264,0.630436
10:13:14,30-Sep-21,0.782,0.794,0.611524,0.630436
10:13:14,30-Sep-21,0.782,0.794,0.611524,0.630436
10:13:14,30-Sep-21,0.782,0.794,0.611524,0.630436
10:13:14,30-Sep-21,0.782,0.793,0.611524,0.628849
10:13:14,30-Sep-21,0.782,0.793,0.611524,0.628849
10:13:14,30-Sep-21,0.782,0.793,0.611524,0.628849
10:13:14,30-Sep-21,0.782,0.793,0.611524,0.628849
10:13:14,30-Sep-21,0.782,0.793,0.611524,0.628849
10:13:14,30-Sep-21,0.782,0.793,0.611524,0.628849
10:13:14,30-Sep-21,0.782,0.793,0.611524,0.628849
10:13:14,30-Sep-21,0.782,0.793,0.611524,0.628849
10:13:14,30-Sep-21,0.782,0.793,0.611524,0.628849
10:13:14,30-Sep-21,0.782,0.793,0.611524,0.628849
10:13:14,30-Sep-21,0.787,0.793,0.619369,0.628849
10:13:14,30-Sep-21,0.787,0.793,0.619369,0.628849
10:13:14,30-Sep-21,0.787,0.793,0.619369,0.628849
10:13:14,30-Sep-21,0.792,0.793,0.627264,0.628849
10:13:14,30-Sep-21,0.792,0.793,0.627264,0.628849
10:13:14,30-Sep-21,0.792,0.793,0.627264,0.628849
10:13:14,30-Sep-21,0.792,0.793,0.627264,0.628849
10:13:14,30-Sep-21,0.792,0.793,0.627264,0.628849
10:13:14,30-Sep-21,0.8065,0.793,0.65044225,0.628849
10:13:14,30-Sep-21,0.8065,0.793,0.65044225,0.628849
10:13:14,30-Sep-21,0.8065,0.793,0.65044225,0.628849
10:13:14,30-Sep-21,0.8065,0.793,0.65044225,0.628849
10:13:14,30-Sep-21,0.8065,0.793,0.65044225,0.628849
10:13:14,30-Sep-21,0.8065,0.793,0.65044225,0.628849
10:13:14,30-Sep-21,0.8065,0.793,0.65044225,0.628849
10:13:14,30-Sep-21,0.8065,0.793,0.65044225,0.628849
10:13:14,30-Sep-21,0.8065,0.793,0.65044225,0.628849
10:13:14,30-Sep-21,0.8015,0.793,0.64240225,0.628849
10:13:14,30-Sep-21,0.8015,0.793,0.64240225,0.628849
10:13:14,30-Sep-21,0.8015,0.793,0.64240225,0.628849
10:13:14,30-Sep-21,0.8015,0.793,0.64240225,0.628849
10:13:14,30-Sep-21,0.8015,0.793,0.64240225,0.628849
10:13:14,30-Sep-21,0.8015,0.793,0.64240225,0.628849
10:13:14,30-Sep-21,0.8015,0.792,0.64240225,0.627264
10:13:14,30-Sep-21,0.787,0.792,0.619369,0.627264
10:13:14,30-Sep-21,0.787,0.792,0.619369,0.627264
10:13:14,30-Sep-21,0.787,0.792,0.619369,0.627264
10:13:14,30-Sep-21,0.787,0.792,0.619369,0.627264
10:13:14,30-Sep-21,0.782,0.792,0.611524,0.627264
10:13:14,30-Sep-21,0.782,0.792,0.611524,0.627264
10:13:14,30-Sep-21,0.782,0.792,0.611524,0.627264
10:13:14,30-Sep-21,0.782,0.792,0.611524,0.627264
10:13:14,30-Sep-21,0.782,0.792,0.611524,0.627264
10:13:14,30-Sep-21,0.782,0.792,0.611524,0.627264
10:13:14,30-Sep-21,0.777,0.792,0.603729,0.627264
10:13:14,30-Sep-21,0.777,0.792,0.603729,0.627264
10:13:14,30-Sep-21,0.777,0.792,0.603729,0.627264
10:13:14,30-Sep-21,0.777,0.792,0.603729,0.627264
10:13:14,30-Sep-21,0.777,0.792,0.603729,0.627264
10:13:14,30-Sep-21,0.777,0.792,0.603729,0.627264
10:13:14,30-Sep-21,0.782,0.792,0.611524,0.627264
10:13:14,30-Sep-21,0.782,0.792,0.611524,0.627264
10:13:14,30-Sep-21,0.782,0.792,0.611524,0.627264
10:13:14,30-Sep-21,0.7965,0.792,0.63441225,0.627264
10:13:14,30-Sep-21,0.7965,0.792,0.63441225,0.627264
10:13:14,30-Sep-21,0.7965,0.792,0.63441225,0.627264
10:13:14,30-Sep-21,0.7965,0.793,0.63441225,0.628849
10:13:14,30-Sep-21,0.7965,0.793,0.63441225,0.628849
10:13:14,30-Sep-21,0.8015,0.793,0.64240225,0.628849
10:13:14,30-Sep-21,0.8015,0.793,0.64240225,0.628849
10:13:14,30-Sep-21,0.8015,0.793,0.64240225,0.628849
10:13:14,30-Sep-21,0.8065,0.793,0.65044225,0.628849
10:13:14,30-Sep-21,0.8065,0.793,0.65044225,0.628849
10:13:14,30-Sep-21,0.8065,0.793,0.65044225,0.628849
10:13:14,30-Sep-21,0.8065,0.793,0.65044225,0.628849
10:13:14,30-Sep-21,0.8065,0.793,0.65044225,0.628849
10:13:14,30-Sep-21,0.8065,0.793,0.65044225,0.628849
10:13:14,30-Sep-21,0.8065,0.793,0.65044225,0.628849
10:13:14,30-Sep-21,0.8015,0.793,0.64240225,0.628849
10:13:14,30-Sep-21,0.8015,0.793,0.64240225,0.628849
10:13:14,30-Sep-21,0.8015,0.792,0.64240225,0.627264
10:13:14,30-Sep-21,0.8015,0.792,0.64240225,0.627264
10:13:14,30-Sep-21,0.8015,0.792,0.64240225,0.627264
10:13:14,30-Sep-21,0.792,0.792,0.627264,0.627264
10:13:15,30-Sep-21,0.792,0.792,0.627264,0.627264
10:13:15,30-Sep-21,0.792,0.792,0.627264,0.627264
10:13:15,30-Sep-21,0.792,0.791,0.627264,0.625681
10:13:15,30-Sep-21,0.792,0.791,0.627264,0.625681
10:13:15,30-Sep-21,0.792,0.791,0.627264,0.625681
10:13:15,30-Sep-21,0.782,0.791,0.611524,0.625681
10:13:15,30-Sep-21,0.782,0.791,0.611524,0.625681
10:13:15,30-Sep-21,0.782,0.791,0.611524,0.625681
10:13:15,30-Sep-21,0.782,0.791,0.611524,0.625681
10:13:15,30-Sep-21,0.782,0.791,0.611524,0.625681
10:13:15,30-Sep-21,0.782,0.79,0.611524,0.6241
10:13:15,30-Sep-21,0.777,0.79,0.603729,0.6241
10:13:15,30-Sep-21,0.777,0.79,0.603729,0.6241
10:13:15,30-Sep-21,0.777,0.791,0.603729,0.625681
10:13:15,30-Sep-21,0.777,0.791,0.603729,0.625681
10:13:15,30-Sep-21,0.777,0.791,0.603729,0.625681
10:13:15,30-Sep-21,0.777,0.791,0.603729,0.625681
10:13:15,30-Sep-21,0.777,0.791,0.603729,0.625681
10:13:15,30-Sep-21,0.777,0.791,0.603729,0.625681
10:13:15,30-Sep-21,0.782,0.791,0.611524,0.625681
10:13:15,30-Sep-21,0.782,0.792,0.611524,0.627264
10:13:15,30-Sep-21,0.782,0.792,0.611524,0.627264
10:13:15,30-Sep-21,0.782,0.792,0.611524,0.627264
10:13:15,30-Sep-21,0.782,0.792,0.611524,0.627264
10:13:15,30-Sep-21,0.8015,0.793,0.64240225,0.628849
10:13:15,30-Sep-21,0.8015,0.793,0.64240225,0.628849
10:13:15,30-Sep-21,0.8015,0.793,0.64240225,0.628849
10:13:15,30-Sep-21,0.8015,0.793,0.64240225,0.628849
10:13:15,30-Sep-21,0.8065,0.793,0.65044225,0.628849
10:13:15,30-Sep-21,0.8065,0.794,0.65044225,0.630436
10:13:15,30-Sep-21,0.8065,0.794,0.65044225,0.630436
10:13:15,30-Sep-21,0.8065,0.794,0.65044225,0.630436
10:13:15,30-Sep-21,0.8065,0.794,0.65044225,0.630436
10:13:15,30-Sep-21,0.8065,0.794,0.65044225,0.630436
10:13:15,30-Sep-21,0.8065,0.794,0.65044225,0.630436
10:13:15,30-Sep-21,0.8065,0.794,0.65044225,0.630436
10:13:15,30-Sep-21,0.8065,0.794,0.65044225,0.630436
10:13:15,30-Sep-21,0.8065,0.794,0.65044225,0.630436
10:13:15,30-Sep-21,0.8065,0.794,0.65044225,0.630436
10:13:15,30-Sep-21,0.8065,0.794,0.65044225,0.630436
10:13:15,30-Sep-21,0.8065,0.794,0.65044225,0.630436
10:13:15,30-Sep-21,0.7965,0.793,0.63441225,0.628849
10:13:15,30-Sep-21,0.7965,0.793,0.63441225,0.628849
10:13:15,30-Sep-21,0.7965,0.793,0.63441225,0.628849
10:13:15,30-Sep-21,0.792,0.793,0.627264,0.628849
10:13:15,30-Sep-21,0.792,0.792,0.627264,0.627264
10:13:15,30-Sep-21,0.792,0.792,0.627264,0.627264
10:13:15,30-Sep-21,0.792,0.792,0.627264,0.627264
10:13:15,30-Sep-21,0.792,0.792,0.627264,0.627264
10:13:15,30-Sep-21,0.792,0.791,0.627264,0.625681
10:13:15,30-Sep-21,0.792,0.791,0.627264,0.625681
10:13:15,30-Sep-21,0.782,0.791,0.611524,0.625681
10:13:15,30-Sep-21,0.782,0.791,0.611524,0.625681
10:13:15,30-Sep-21,0.782,0.791,0.611524,0.625681
10:13:15,30-Sep-21,0.782,0.791,0.611524,0.625681
10:13:15,30-Sep-21,0.777,0.791,0.603729,0.625681
10:13:15,30-Sep-21,0.777,0.79,0.603729,0.6241
10:13:15,30-Sep-21,0.777,0.79,0.603729,0.6241
10:13:15,30-Sep-21,0.777,0.791,0.603729,0.625681
10:13:15,30-Sep-21,0.777,0.791,0.603729,0.625681
10:13:15,30-Sep-21,0.777,0.791,0.603729,0.625681
10:13:15,30-Sep-21,0.777,0.791,0.603729,0.625681
10:13:15,30-Sep-21,0.782,0.791,0.611524,0.625681
10:13:15,30-Sep-21,0.782,0.791,0.611524,0.625681
10:13:15,30-Sep-21,0.782,0.791,0.611524,0.625681
10:13:15,30-Sep-21,0.782,0.792,0.611524,0.627264
10:13:15,30-Sep-21,0.787,0.792,0.619369,0.627264
10:13:15,30-Sep-21,0.787,0.792,0.619369,0.627264
10:13:15,30-Sep-21,0.787,0.793,0.619369,0.628849
10:13:15,30-Sep-21,0.787,0.793,0.619369,0.628849
10:13:15,30-Sep-21,0.8015,0.794,0.64240225,0.630436
10:13:15,30-Sep-21,0.8015,0.794,0.64240225,0.630436
10:13:15,30-Sep-21,0.8015,0.794,0.64240225,0.630436
10:13:15,30-Sep-21,0.8015,0.795,0.64240225,0.632025
10:13:15,30-Sep-21,0.8065,0.795,0.65044225,0.632025
10:13:15,30-Sep-21,0.8065,0.796,0.65044225,0.633616
10:13:15,30-Sep-21,0.8065,0.796,0.65044225,0.633616
10:13:15,30-Sep-21,0.8065,0.796,0.65044225,0.633616
10:13:15,30-Sep-21,0.8065,0.797,0.65044225,0.635209
10:13:15,30-Sep-21,0.8065,0.797,0.65044225,0.635209
10:13:15,30-Sep-21,0.8065,0.797,0.65044225,0.635209
10:13:15,30-Sep-21,0.8065,0.798,0.65044225,0.636804
10:13:15,30-Sep-21,0.8065,0.798,0.65044225,0.636804
10:13:15,30-Sep-21,0.8065,0.798,0.65044225,0.636804
10:13:15,30-Sep-21,0.8065,0.799,0.65044225,0.638401
10:13:15,30-Sep-21,0.8065,0.799,0.65044225,0.638401
10:13:15,30-Sep-21,0.8065,0.799,0.65044225,0.638401
10:13:15,30-Sep-21,0.8065,0.799,0.65044225,0.638401
10:13:15,30-Sep-21,0.8065,0.799,0.65044225,0.638401
10:13:15,30-Sep-21,0.8065,0.8,0.65044225,0.64
10:13:15,30-Sep-21,0.8065,0.8,0.65044225,0.64
10:13:15,30-Sep-21,0.8065,0.8,0.65044225,0.64
10:13:15,30-Sep-21,0.8065,0.8,0.65044225,0.64
10:13:15,30-Sep-21,0.8065,0.8,0.65044225,0.64
10:13:15,30-Sep-21,0.7965,0.8,0.63441225,0.64
10:13:15,30-Sep-21,0.7965,0.801,0.63441225,0.641601
10:13:15,30-Sep-21,0.7965,0.801,0.63441225,0.641601
10:13:15,30-Sep-21,0.7965,0.801,0.63441225,0.641601
10:13:15,30-Sep-21,0.7965,0.801,0.63441225,0.641601
10:13:15,30-Sep-21,0.7965,0.801,0.63441225,0.641601
10:13:15,30-Sep-21,0.7965,0.802,0.63441225,0.643204
10:13:15,30-Sep-21,0.792,0.802,0.627264,0.643204
10:13:15,30-Sep-21,0.792,0.802,0.627264,0.643204
10:13:15,30-Sep-21,0.792,0.803,0.627264,0.644809
10:13:15,30-Sep-21,0.787,0.803,0.619369,0.644809
10:13:15,30-Sep-21,0.787,0.803,0.619369,0.644809
10:13:15,30-Sep-21,0.787,0.804,0.619369,0.646416
10:13:15,30-Sep-21,0.787,0.804,0.619369,0.646416
10:13:15,30-Sep-21,0.792,0.805,0.627264,0.648025
10:13:15,30-Sep-21,0.792,0.806,0.627264,0.649636
10:13:15,30-Sep-21,0.792,0.806,0.627264,0.649636
10:13:15,30-Sep-21,0.8065,0.807,0.65044225,0.651249
10:13:15,30-Sep-21,0.8065,0.807,0.65044225,0.651249
10:13:15,30-Sep-21,0.8065,0.808,0.65044225,0.652864
10:13:15,30-Sep-21,0.8065,0.809,0.65044225,0.654481
10:13:15,30-Sep-21,0.8065,0.809,0.65044225,0.654481
10:13:15,30-Sep-21,0.816,0.81,0.665856,0.6561
10:13:15,30-Sep-21,0.816,0.811,0.665856,0.657721
10:13:15,30-Sep-21,0.816,0.811,0.665856,0.657721
10:13:15,30-Sep-21,0.816,0.812,0.665856,0.659344
10:13:15,30-Sep-21,0.816,0.812,0.665856,0.659344
10:13:15,30-Sep-21,0.816,0.813,0.665856,0.660969
10:13:15,30-Sep-21,0.816,0.814,0.665856,0.662596
10:13:15,30-Sep-21,0.816,0.814,0.665856,0.662596
10:13:15,30-Sep-21,0.816,0.815,0.665856,0.664225
10:13:15,30-Sep-21,0.816,0.815,0.665856,0.664225
10:13:15,30-Sep-21,0.826,0.815,0.682276,0.664225
10:13:15,30-Sep-21,0.826,0.816,0.682276,0.665856
10:13:15,30-Sep-21,0.826,0.816,0.682276,0.665856
10:13:15,30-Sep-21,0.826,0.816,0.682276,0.665856
10:13:15,30-Sep-21,0.826,0.816,0.682276,0.665856
10:13:15,30-Sep-21,0.826,0.817,0.682276,0.667489
10:13:15,30-Sep-21,0.826,0.817,0.682276,0.667489
10:13:15,30-Sep-21,0.826,0.817,0.682276,0.667489
10:13:15,30-Sep-21,0.826,0.817,0.682276,0.667489
10:13:15,30-Sep-21,0.821,0.816,0.674041,0.665856
10:13:15,30-Sep-21,0.821,0.816,0.674041,0.665856
10:13:15,30-Sep-21,0.821,0.816,0.674041,0.665856
10:13:15,30-Sep-21,0.821,0.816,0.674041,0.665856
10:13:15,30-Sep-21,0.816,0.816,0.665856,0.665856
10:13:15,30-Sep-21,0.816,0.815,0.665856,0.664225
10:13:15,30-Sep-21,0.816,0.815,0.665856,0.664225
10:13:15,30-Sep-21,0.816,0.814,0.665856,0.662596
10:13:15,30-Sep-21,0.816,0.814,0.665856,0.662596
10:13:15,30-Sep-21,0.816,0.813,0.665856,0.660969
10:13:15,30-Sep-21,0.816,0.813,0.665856,0.660969
10:13:15,30-Sep-21,0.8115,0.812,0.65853225,0.659344
10:13:15,30-Sep-21,0.8115,0.812,0.65853225,0.659344
10:13:15,30-Sep-21,0.8115,0.811,0.65853225,0.657721
10:13:15,30-Sep-21,0.8115,0.811,0.65853225,0.657721
10:13:15,30-Sep-21,0.8015,0.81,0.64240225,0.6561
10:13:15,30-Sep-21,0.8015,0.809,0.64240225,0.654481
10:13:15,30-Sep-21,0.8015,0.809,0.64240225,0.654481
10:13:15,30-Sep-21,0.7965,0.808,0.63441225,0.652864
10:13:15,30-Sep-21,0.7965,0.808,0.63441225,0.652864
10:13:15,30-Sep-21,0.7965,0.807,0.63441225,0.651249
10:13:15,30-Sep-21,0.7965,0.807,0.63441225,0.651249
10:13:15,30-Sep-21,0.792,0.806,0.627264,0.649636
10:13:15,30-Sep-21,0.792,0.805,0.627264,0.648025
10:13:15,30-Sep-21,0.792,0.805,0.627264,0.648025
10:13:15,30-Sep-21,0.792,0.804,0.627264,0.646416
10:13:15,30-Sep-21,0.792,0.804,0.627264,0.646416
10:13:15,30-Sep-21,0.792,0.804,0.627264,0.646416
10:13:15,30-Sep-21,0.792,0.803,0.627264,0.644809
10:13:15,30-Sep-21,0.792,0.803,0.627264,0.644809
10:13:15,30-Sep-21,0.792,0.802,0.627264,0.643204
10:13:15,30-Sep-21,0.8065,0.802,0.65044225,0.643204
10:13:15,30-Sep-21,0.8065,0.801,0.65044225,0.641601
10:13:15,30-Sep-21,0.8065,0.801,0.65044225,0.641601
10:13:15,30-Sep-21,0.8115,0.8,0.65853225,0.64
10:13:15,30-Sep-21,0.8115,0.8,0.65853225,0.64
10:13:15,30-Sep-21,0.8115,0.8,0.65853225,0.64
10:13:15,30-Sep-21,0.8115,0.799,0.65853225,0.638401
10:13:15,30-Sep-21,0.8115,0.799,0.65853225,0.638401
10:13:15,30-Sep-21,0.8115,0.798,0.65853225,0.636804
10:13:15,30-Sep-21,0.8115,0.798,0.65853225,0.636804
10:13:15,30-Sep-21,0.8065,0.797,0.65044225,0.635209
10:13:15,30-Sep-21,0.8065,0.797,0.65044225,0.635209
10:13:15,30-Sep-21,0.8065,0.796,0.65044225,0.633616
10:13:15,30-Sep-21,0.8065,0.796,0.65044225,0.633616
10:13:15,30-Sep-21,0.8065,0.795,0.65044225,0.632025
10:13:15,30-Sep-21,0.8065,0.795,0.65044225,0.632025
10:13:15,30-Sep-21,0.8065,0.794,0.65044225,0.630436
10:13:15,30-Sep-21,0.8065,0.794,0.65044225,0.630436
10:13:15,30-Sep-21,0.8065,0.794,0.65044225,0.630436
10:13:15,30-Sep-21,0.8065,0.793,0.65044225,0.628849
10:13:15,30-Sep-21,0.792,0.793,0.627264,0.628849
10:13:15,30-Sep-21,0.792,0.792,0.627264,0.627264
10:13:15,30-Sep-21,0.792,0.792,0.627264,0.627264
10:13:15,30-Sep-21,0.787,0.792,0.619369,0.627264
10:13:15,30-Sep-21,0.787,0.791,0.619369,0.625681
10:13:15,30-Sep-21,0.787,0.791,0.619369,0.625681
10:13:15,30-Sep-21,0.777,0.791,0.603729,0.625681
10:13:15,30-Sep-21,0.777,0.791,0.603729,0.625681
10:13:15,30-Sep-21,0.777,0.791,0.603729,0.625681
10:13:15,30-Sep-21,0.777,0.791,0.603729,0.625681
10:13:15,30-Sep-21,0.777,0.791,0.603729,0.625681
10:13:15,30-Sep-21,0.777,0.791,0.603729,0.625681
10:13:15,30-Sep-21,0.777,0.791,0.603729,0.625681
10:13:15,30-Sep-21,0.777,0.791,0.603729,0.625681
10:13:15,30-Sep-21,0.777,0.791,0.603729,0.625681
10:13:15,30-Sep-21,0.777,0.792,0.603729,0.627264
10:13:15,30-Sep-21,0.782,0.792,0.611524,0.627264
10:13:15,30-Sep-21,0.782,0.793,0.611524,0.628849
10:13:15,30-Sep-21,0.782,0.793,0.611524,0.628849
10:13:15,30-Sep-21,0.782,0.794,0.611524,0.630436
10:13:15,30-Sep-21,0.792,0.794,0.627264,0.630436
10:13:15,30-Sep-21,0.792,0.795,0.627264,0.632025
10:13:15,30-Sep-21,0.792,0.796,0.627264,0.633616
10:13:15,30-Sep-21,0.792,0.796,0.627264,0.633616
10:13:15,30-Sep-21,0.792,0.797,0.627264,0.635209
10:13:15,30-Sep-21,0.8065,0.798,0.65044225,0.636804
10:13:15,30-Sep-21,0.8065,0.798,0.65044225,0.636804
10:13:15,30-Sep-21,0.8065,0.799,0.65044225,0.638401
10:13:15,30-Sep-21,0.8065,0.8,0.65044225,0.64
10:13:15,30-Sep-21,0.8065,0.801,0.65044225,0.641601
10:13:15,30-Sep-21,0.8065,0.801,0.65044225,0.641601
10:13:15,30-Sep-21,0.8115,0.802,0.65853225,0.643204
10:13:15,30-Sep-21,0.8115,0.802,0.65853225,0.643204
10:13:15,30-Sep-21,0.8115,0.803,0.65853225,0.644809
10:13:15,30-Sep-21,0.8115,0.804,0.65853225,0.646416
10:13:15,30-Sep-21,0.8115,0.804,0.65853225,0.646416
10:13:15,30-Sep-21,0.816,0.805,0.665856,0.648025
10:13:15,30-Sep-21,0.816,0.805,0.665856,0.648025
10:13:15,30-Sep-21,0.816,0.805,0.665856,0.648025
10:13:15,30-Sep-21,0.816,0.806,0.665856,0.649636
10:13:15,30-Sep-21,0.816,0.806,0.665856,0.649636
10:13:15,30-Sep-21,0.816,0.806,0.665856,0.649636
10:13:15,30-Sep-21,0.816,0.806,0.665856,0.649636
10:13:15,30-Sep-21,0.816,0.807,0.665856,0.651249
10:13:15,30-Sep-21,0.8115,0.807,0.65853225,0.651249
10:13:15,30-Sep-21,0.8115,0.807,0.65853225,0.651249
10:13:15,30-Sep-21,0.8115,0.807,0.65853225,0.651249
10:13:15,30-Sep-21,0.8115,0.807,0.65853225,0.651249
10:13:15,30-Sep-21,0.8115,0.807,0.65853225,0.651249
10:13:15,30-Sep-21,0.8115,0.806,0.65853225,0.649636
10:13:15,30-Sep-21,0.8115,0.806,0.65853225,0.649636
10:13:15,30-Sep-21,0.8115,0.806,0.65853225,0.649636
10:13:16,30-Sep-21,0.7965,0.806,0.63441225,0.649636
10:13:16,30-Sep-21,0.7965,0.806,0.63441225,0.649636
10:13:16,30-Sep-21,0.7965,0.806,0.63441225,0.649636
10:13:16,30-Sep-21,0.7965,0.805,0.63441225,0.648025
10:13:16,30-Sep-21,0.7965,0.805,0.63441225,0.648025
10:13:16,30-Sep-21,0.7965,0.805,0.63441225,0.648025
10:13:16,30-Sep-21,0.7965,0.805,0.63441225,0.648025
10:13:16,30-Sep-21,0.792,0.805,0.627264,0.648025
10:13:16,30-Sep-21,0.792,0.805,0.627264,0.648025
10:13:16,30-Sep-21,0.792,0.804,0.627264,0.646416
10:13:16,30-Sep-21,0.792,0.804,0.627264,0.646416
10:13:16,30-Sep-21,0.792,0.804,0.627264,0.646416
10:13:16,30-Sep-21,0.792,0.804,0.627264,0.646416
10:13:16,30-Sep-21,0.792,0.804,0.627264,0.646416
10:13:16,30-Sep-21,0.792,0.804,0.627264,0.646416
10:13:16,30-Sep-21,0.792,0.804,0.627264,0.646416
10:13:16,30-Sep-21,0.8015,0.804,0.64240225,0.646416
10:13:16,30-Sep-21,0.8015,0.804,0.64240225,0.646416
10:13:16,30-Sep-21,0.8015,0.804,0.64240225,0.646416
10:13:16,30-Sep-21,0.8015,0.804,0.64240225,0.646416
10:13:16,30-Sep-21,0.8065,0.804,0.65044225,0.646416
10:13:16,30-Sep-21,0.8065,0.803,0.65044225,0.644809
10:13:16,30-Sep-21,0.8065,0.803,0.65044225,0.644809
10:13:16,30-Sep-21,0.8065,0.803,0.65044225,0.644809
10:13:16,30-Sep-21,0.8065,0.803,0.65044225,0.644809
10:13:16,30-Sep-21,0.8065,0.803,0.65044225,0.644809
10:13:16,30-Sep-21,0.8115,0.803,0.65853225,0.644809
10:13:16,30-Sep-21,0.8115,0.803,0.65853225,0.644809
10:13:16,30-Sep-21,0.8115,0.803,0.65853225,0.644809
10:13:16,30-Sep-21,0.816,0.803,0.665856,0.644809
10:13:16,30-Sep-21,0.816,0.802,0.665856,0.643204
10:13:16,30-Sep-21,0.816,0.802,0.665856,0.643204
10:13:16,30-Sep-21,0.816,0.802,0.665856,0.643204
10:13:16,30-Sep-21,0.816,0.802,0.665856,0.643204
10:13:16,30-Sep-21,0.816,0.802,0.665856,0.643204
10:13:16,30-Sep-21,0.816,0.801,0.665856,0.641601
10:13:16,30-Sep-21,0.8065,0.801,0.65044225,0.641601
10:13:16,30-Sep-21,0.8065,0.801,0.65044225,0.641601
10:13:16,30-Sep-21,0.8065,0.8,0.65044225,0.64
10:13:16,30-Sep-21,0.8065,0.8,0.65044225,0.64
10:13:16,30-Sep-21,0.8065,0.8,0.65044225,0.64
10:13:16,30-Sep-21,0.8015,0.799,0.64240225,0.638401
10:13:16,30-Sep-21,0.8015,0.799,0.64240225,0.638401
10:13:16,30-Sep-21,0.8015,0.799,0.64240225,0.638401
10:13:16,30-Sep-21,0.787,0.798,0.619369,0.636804
10:13:16,30-Sep-21,0.787,0.798,0.619369,0.636804
10:13:16,30-Sep-21,0.787,0.798,0.619369,0.636804
10:13:16,30-Sep-21,0.782,0.798,0.611524,0.636804
10:13:16,30-Sep-21,0.782,0.797,0.611524,0.635209
10:13:16,30-Sep-21,0.782,0.797,0.611524,0.635209
10:13:16,30-Sep-21,0.782,0.797,0.611524,0.635209
10:13:16,30-Sep-21,0.782,0.797,0.611524,0.635209
10:13:16,30-Sep-21,0.782,0.797,0.611524,0.635209
10:13:16,30-Sep-21,0.782,0.797,0.611524,0.635209
10:13:16,30-Sep-21,0.782,0.796,0.611524,0.633616
10:13:16,30-Sep-21,0.782,0.796,0.611524,0.633616
10:13:16,30-Sep-21,0.782,0.796,0.611524,0.633616
10:13:16,30-Sep-21,0.787,0.796,0.619369,0.633616
10:13:16,30-Sep-21,0.787,0.796,0.619369,0.633616
10:13:16,30-Sep-21,0.787,0.796,0.619369,0.633616
10:13:16,30-Sep-21,0.8065,0.796,0.65044225,0.633616
10:13:16,30-Sep-21,0.8065,0.797,0.65044225,0.635209
10:13:16,30-Sep-21,0.8065,0.797,0.65044225,0.635209
10:13:16,30-Sep-21,0.8065,0.797,0.65044225,0.635209
10:13:16,30-Sep-21,0.8065,0.797,0.65044225,0.635209
10:13:16,30-Sep-21,0.8065,0.797,0.65044225,0.635209
10:13:16,30-Sep-21,0.8115,0.797,0.65853225,0.635209
10:13:16,30-Sep-21,0.8115,0.797,0.65853225,0.635209
10:13:16,30-Sep-21,0.8115,0.797,0.65853225,0.635209
10:13:16,30-Sep-21,0.8115,0.797,0.65853225,0.635209
10:13:16,30-Sep-21,0.8065,0.797,0.65044225,0.635209
10:13:16,30-Sep-21,0.8065,0.797,0.65044225,0.635209
10:13:16,30-Sep-21,0.8065,0.798,0.65044225,0.636804
10:13:16,30-Sep-21,0.8065,0.798,0.65044225,0.636804
10:13:16,30-Sep-21,0.8065,0.798,0.65044225,0.636804
10:13:16,30-Sep-21,0.8065,0.798,0.65044225,0.636804
10:13:16,30-Sep-21,0.8015,0.798,0.64240225,0.636804
10:13:16,30-Sep-21,0.8015,0.798,0.64240225,0.636804
10:13:16,30-Sep-21,0.8015,0.798,0.64240225,0.636804
10:13:16,30-Sep-21,0.7965,0.798,0.63441225,0.636804
10:13:16,30-Sep-21,0.7965,0.798,0.63441225,0.636804
10:13:16,30-Sep-21,0.7965,0.798,0.63441225,0.636804
10:13:16,30-Sep-21,0.792,0.798,0.627264,0.636804
10:13:16,30-Sep-21,0.792,0.799,0.627264,0.638401
10:13:16,30-Sep-21,0.792,0.799,0.627264,0.638401
10:13:16,30-Sep-21,0.787,0.799,0.619369,0.638401
10:13:16,30-Sep-21,0.787,0.799,0.619369,0.638401
10:13:16,30-Sep-21,0.787,0.799,0.619369,0.638401
10:13:16,30-Sep-21,0.787,0.8,0.619369,0.64
10:13:16,30-Sep-21,0.787,0.8,0.619369,0.64
10:13:16,30-Sep-21,0.787,0.8,0.619369,0.64
10:13:16,30-Sep-21,0.792,0.801,0.627264,0.641601
10:13:16,30-Sep-21,0.792,0.801,0.627264,0.641601
10:13:16,30-Sep-21,0.792,0.801,0.627264,0.641601
10:13:16,30-Sep-21,0.792,0.802,0.627264,0.643204
10:13:16,30-Sep-21,0.8015,0.802,0.64240225,0.643204
10:13:16,30-Sep-21,0.8015,0.803,0.64240225,0.644809
10:13:16,30-Sep-21,0.8015,0.803,0.64240225,0.644809
10:13:16,30-Sep-21,0.816,0.804,0.665856,0.646416
10:13:16,30-Sep-21,0.816,0.804,0.665856,0.646416
10:13:16,30-Sep-21,0.821,0.805,0.674041,0.648025
10:13:16,30-Sep-21,0.821,0.806,0.674041,0.649636
10:13:16,30-Sep-21,0.821,0.806,0.674041,0.649636
10:13:16,30-Sep-21,0.821,0.807,0.674041,0.651249
10:13:16,30-Sep-21,0.821,0.808,0.674041,0.652864
10:13:16,30-Sep-21,0.821,0.808,0.674041,0.652864
10:13:16,30-Sep-21,0.821,0.809,0.674041,0.654481
10:13:16,30-Sep-21,0.821,0.81,0.674041,0.6561
10:13:16,30-Sep-21,0.816,0.81,0.665856,0.6561
10:13:16,30-Sep-21,0.816,0.811,0.665856,0.657721
10:13:16,30-Sep-21,0.8065,0.812,0.65044225,0.659344
10:13:16,30-Sep-21,0.8065,0.813,0.65044225,0.660969
10:13:16,30-Sep-21,0.8065,0.814,0.65044225,0.662596
10:13:16,30-Sep-21,0.8065,0.815,0.65044225,0.664225
10:13:16,30-Sep-21,0.8065,0.816,0.65044225,0.665856
10:13:16,30-Sep-21,0.8065,0.816,0.65044225,0.665856
10:13:16,30-Sep-21,0.8065,0.817,0.65044225,0.667489
10:13:16,30-Sep-21,0.8065,0.818,0.65044225,0.669124
10:13:16,30-Sep-21,0.8115,0.819,0.65853225,0.670761
10:13:16,30-Sep-21,0.8115,0.82,0.65853225,0.6724
10:13:16,30-Sep-21,0.8115,0.821,0.65853225,0.674041
10:13:16,30-Sep-21,0.816,0.823,0.665856,0.677329
10:13:16,30-Sep-21,0.816,0.824,0.665856,0.678976
10:13:16,30-Sep-21,0.816,0.825,0.665856,0.680625
10:13:16,30-Sep-21,0.816,0.826,0.665856,0.682276
10:13:16,30-Sep-21,0.816,0.827,0.665856,0.683929
10:13:16,30-Sep-21,0.816,0.828,0.665856,0.685584
10:13:16,30-Sep-21,0.816,0.829,0.665856,0.687241
10:13:16,30-Sep-21,0.836,0.83,0.698896,0.6889
10:13:16,30-Sep-21,0.836,0.831,0.698896,0.690561
10:13:16,30-Sep-21,0.836,0.833,0.698896,0.693889
10:13:16,30-Sep-21,0.836,0.834,0.698896,0.695556
10:13:16,30-Sep-21,0.8455,0.835,0.71487025,0.697225
10:13:16,30-Sep-21,0.8455,0.836,0.71487025,0.698896
10:13:16,30-Sep-21,0.8455,0.837,0.71487025,0.700569
10:13:16,30-Sep-21,0.8455,0.838,0.71487025,0.702244
10:13:16,30-Sep-21,0.8455,0.839,0.71487025,0.703921
10:13:16,30-Sep-21,0.8555,0.84,0.73188025,0.7056
10:13:16,30-Sep-21,0.8555,0.841,0.73188025,0.707281
10:13:16,30-Sep-21,0.86,0.842,0.7396,0.708964
10:13:16,30-Sep-21,0.86,0.843,0.7396,0.710649
10:13:16,30-Sep-21,0.86,0.843,0.7396,0.710649
10:13:16,30-Sep-21,0.8555,0.844,0.73188025,0.712336
10:13:16,30-Sep-21,0.8555,0.845,0.73188025,0.714025
10:13:16,30-Sep-21,0.8555,0.846,0.73188025,0.715716
10:13:16,30-Sep-21,0.8505,0.846,0.72335025,0.715716
10:13:16,30-Sep-21,0.8505,0.847,0.72335025,0.717409
10:13:16,30-Sep-21,0.8505,0.848,0.72335025,0.719104
10:13:16,30-Sep-21,0.8455,0.848,0.71487025,0.719104
10:13:16,30-Sep-21,0.8455,0.849,0.71487025,0.720801
10:13:16,30-Sep-21,0.8455,0.85,0.71487025,0.7225
10:13:16,30-Sep-21,0.8455,0.85,0.71487025,0.7225
10:13:16,30-Sep-21,0.8455,0.851,0.71487025,0.724201
10:13:16,30-Sep-21,0.836,0.851,0.698896,0.724201
10:13:16,30-Sep-21,0.836,0.852,0.698896,0.725904
10:13:16,30-Sep-21,0.836,0.853,0.698896,0.727609
10:13:16,30-Sep-21,0.836,0.853,0.698896,0.727609
10:13:16,30-Sep-21,0.836,0.854,0.698896,0.729316
10:13:16,30-Sep-21,0.836,0.854,0.698896,0.729316
10:13:16,30-Sep-21,0.836,0.855,0.698896,0.731025
10:13:16,30-Sep-21,0.8405,0.855,0.70644025,0.731025
10:13:16,30-Sep-21,0.8405,0.856,0.70644025,0.732736
10:13:16,30-Sep-21,0.8405,0.857,0.70644025,0.734449
10:13:16,30-Sep-21,0.8405,0.857,0.70644025,0.734449
10:13:16,30-Sep-21,0.865,0.858,0.748225,0.736164
10:13:16,30-Sep-21,0.865,0.858,0.748225,0.736164
10:13:16,30-Sep-21,0.865,0.859,0.748225,0.737881
10:13:16,30-Sep-21,0.87,0.859,0.7569,0.737881
10:13:16,30-Sep-21,0.87,0.86,0.7569,0.7396
10:13:16,30-Sep-21,0.875,0.86,0.765625,0.7396
10:13:16,30-Sep-21,0.875,0.861,0.765625,0.741321
10:13:16,30-Sep-21,0.875,0.861,0.765625,0.741321
10:13:16,30-Sep-21,0.87,0.862,0.7569,0.743044
10:13:16,30-Sep-21,0.87,0.862,0.7569,0.743044
10:13:16,30-Sep-21,0.87,0.862,0.7569,0.743044
10:13:16,30-Sep-21,0.87,0.863,0.7569,0.744769
10:13:16,30-Sep-21,0.87,0.863,0.7569,0.744769
10:13:16,30-Sep-21,0.87,0.864,0.7569,0.746496
10:13:16,30-Sep-21,0.87,0.864,0.7569,0.746496
10:13:16,30-Sep-21,0.87,0.864,0.7569,0.746496
10:13:16,30-Sep-21,0.87,0.864,0.7569,0.746496
10:13:16,30-Sep-21,0.87,0.865,0.7569,0.748225
10:13:16,30-Sep-21,0.87,0.865,0.7569,0.748225
10:13:16,30-Sep-21,0.87,0.865,0.7569,0.748225
10:13:16,30-Sep-21,0.87,0.865,0.7569,0.748225
10:13:17,30-Sep-21,0.865,0.866,0.748225,0.749956
10:13:17,30-Sep-21,0.865,0.866,0.748225,0.749956
10:13:17,30-Sep-21,0.865,0.866,0.748225,0.749956
10:13:17,30-Sep-21,0.865,0.866,0.748225,0.749956
10:13:17,30-Sep-21,0.865,0.867,0.748225,0.751689
10:13:17,30-Sep-21,0.865,0.867,0.748225,0.751689
10:13:17,30-Sep-21,0.865,0.867,0.748225,0.751689
10:13:17,30-Sep-21,0.865,0.868,0.748225,0.753424
10:13:17,30-Sep-21,0.865,0.868,0.748225,0.753424
10:13:17,30-Sep-21,0.8555,0.868,0.73188025,0.753424
10:13:17,30-Sep-21,0.8555,0.869,0.73188025,0.755161
10:13:17,30-Sep-21,0.8555,0.869,0.73188025,0.755161
10:13:17,30-Sep-21,0.8555,0.87,0.73188025,0.7569
10:13:17,30-Sep-21,0.8555,0.87,0.73188025,0.7569
10:13:17,30-Sep-21,0.8555,0.871,0.73188025,0.758641
10:13:17,30-Sep-21,0.865,0.872,0.748225,0.760384
10:13:17,30-Sep-21,0.865,0.872,0.748225,0.760384
10:13:17,30-Sep-21,0.865,0.873,0.748225,0.762129
10:13:17,30-Sep-21,0.875,0.874,0.765625,0.763876
10:13:17,30-Sep-21,0.8945,0.875,0.80013025,0.765625
10:13:17,30-Sep-21,0.8945,0.876,0.80013025,0.767376
10:13:17,30-Sep-21,0.8995,0.877,0.80910025,0.769129
10:13:17,30-Sep-21,0.8995,0.878,0.80910025,0.770884
10:13:17,30-Sep-21,0.8995,0.879,0.80910025,0.772641
10:13:17,30-Sep-21,0.8995,0.88,0.80910025,0.7744
10:13:17,30-Sep-21,0.8995,0.881,0.80910025,0.776161
10:13:17,30-Sep-21,0.8945,0.883,0.80013025,0.779689
10:13:17,30-Sep-21,0.8895,0.884,0.79121025,0.781456
10:13:17,30-Sep-21,0.88,0.885,0.7744,0.783225
10:13:17,30-Sep-21,0.88,0.887,0.7744,0.786769
10:13:17,30-Sep-21,0.88,0.888,0.7744,0.788544
10:13:17,30-Sep-21,0.88,0.89,0.7744,0.7921
10:13:17,30-Sep-21,0.875,0.892,0.765625,0.795664
10:13:17,30-Sep-21,0.875,0.893,0.765625,0.797449
10:13:17,30-Sep-21,0.875,0.895,0.765625,0.801025
10:13:17,30-Sep-21,0.8895,0.897,0.79121025,0.804609
10:13:17,30-Sep-21,0.8895,0.899,0.79121025,0.808201
10:13:17,30-Sep-21,0.8945,0.901,0.80013025,0.811801
10:13:17,30-Sep-21,0.8995,0.903,0.80910025,0.815409
10:13:17,30-Sep-21,0.8995,0.905,0.80910025,0.819025
10:13:17,30-Sep-21,0.8995,0.907,0.80910025,0.822649
10:13:17,30-Sep-21,0.909,0.91,0.826281,0.8281
10:13:17,30-Sep-21,0.919,0.912,0.844561,0.831744
10:13:17,30-Sep-21,0.919,0.914,0.844561,0.835396
10:13:17,30-Sep-21,0.914,0.917,0.835396,0.840889
10:13:17,30-Sep-21,0.914,0.919,0.835396,0.844561
10:13:17,30-Sep-21,0.914,0.921,0.835396,0.848241
10:13:17,30-Sep-21,0.914,0.924,0.835396,0.853776
10:13:17,30-Sep-21,0.909,0.926,0.826281,0.857476
10:13:17,30-Sep-21,0.909,0.929,0.826281,0.863041
10:13:17,30-Sep-21,0.919,0.931,0.844561,0.866761
10:13:17,30-Sep-21,0.919,0.933,0.844561,0.870489
10:13:17,30-Sep-21,0.9335,0.936,0.87142225,0.876096
10:13:17,30-Sep-21,0.9335,0.938,0.87142225,0.879844
10:13:17,30-Sep-21,0.948,0.94,0.898704,0.8836
10:13:17,30-Sep-21,0.948,0.943,0.898704,0.889249
10:13:17,30-Sep-21,0.9725,0.945,0.94575625,0.893025
10:13:17,30-Sep-21,0.9725,0.947,0.94575625,0.896809
10:13:17,30-Sep-21,0.9725,0.949,0.94575625,0.900601
10:13:17,30-Sep-21,0.9775,0.951,0.95550625,0.904401
10:13:17,30-Sep-21,0.9775,0.953,0.95550625,0.908209
10:13:17,30-Sep-21,0.9775,0.955,0.95550625,0.912025
10:13:17,30-Sep-21,0.9775,0.956,0.95550625,0.913936
10:13:17,30-Sep-21,0.9675,0.958,0.93605625,0.917764
10:13:17,30-Sep-21,0.963,0.959,0.927369,0.919681
10:13:17,30-Sep-21,0.963,0.961,0.927369,0.923521
10:13:17,30-Sep-21,0.963,0.962,0.927369,0.925444
10:13:17,30-Sep-21,0.953,0.963,0.908209,0.927369
10:13:17,30-Sep-21,0.953,0.965,0.908209,0.931225
10:13:17,30-Sep-21,0.953,0.966,0.908209,0.933156
10:13:17,30-Sep-21,0.953,0.966,0.908209,0.933156
10:13:17,30-Sep-21,0.953,0.967,0.908209,0.935089
10:13:17,30-Sep-21,0.953,0.968,0.908209,0.937024
10:13:17,30-Sep-21,0.953,0.968,0.908209,0.937024
10:13:17,30-Sep-21,0.963,0.969,0.927369,0.938961
10:13:17,30-Sep-21,0.963,0.969,0.927369,0.938961
10:13:17,30-Sep-21,0.963,0.969,0.927369,0.938961
10:13:17,30-Sep-21,0.963,0.969,0.927369,0.938961
10:13:17,30-Sep-21,0.963,0.969,0.927369,0.938961
10:13:17,30-Sep-21,0.9675,0.969,0.93605625,0.938961
10:13:17,30-Sep-21,0.9675,0.969,0.93605625,0.938961
10:13:17,30-Sep-21,0.9675,0.968,0.93605625,0.937024
10:13:17,30-Sep-21,0.9775,0.968,0.95550625,0.937024
10:13:17,30-Sep-21,0.9775,0.967,0.95550625,0.935089
10:13:17,30-Sep-21,0.9725,0.966,0.94575625,0.933156
10:13:17,30-Sep-21,0.9725,0.965,0.94575625,0.931225
10:13:17,30-Sep-21,0.9725,0.964,0.94575625,0.929296
10:13:17,30-Sep-21,0.9675,0.963,0.93605625,0.927369
10:13:17,30-Sep-21,0.9675,0.962,0.93605625,0.925444
10:13:17,30-Sep-21,0.9675,0.96,0.93605625,0.9216
10:13:17,30-Sep-21,0.9675,0.959,0.93605625,0.919681
10:13:17,30-Sep-21,0.958,0.957,0.917764,0.915849
10:13:17,30-Sep-21,0.958,0.956,0.917764,0.913936
10:13:17,30-Sep-21,0.958,0.954,0.917764,0.910116
10:13:17,30-Sep-21,0.958,0.952,0.917764,0.906304
10:13:17,30-Sep-21,0.9435,0.95,0.89019225,0.9025
10:13:17,30-Sep-21,0.9435,0.947,0.89019225,0.896809
10:13:17,30-Sep-21,0.9435,0.945,0.89019225,0.893025
10:13:17,30-Sep-21,0.9335,0.943,0.87142225,0.889249
10:13:17,30-Sep-21,0.9335,0.94,0.87142225,0.8836
10:13:17,30-Sep-21,0.9335,0.938,0.87142225,0.879844
10:13:17,30-Sep-21,0.9285,0.935,0.86211225,0.874225
10:13:17,30-Sep-21,0.9285,0.933,0.86211225,0.870489
10:13:17,30-Sep-21,0.924,0.93,0.853776,0.8649
10:13:17,30-Sep-21,0.924,0.927,0.853776,0.859329
10:13:17,30-Sep-21,0.924,0.924,0.853776,0.853776
10:13:17,30-Sep-21,0.924,0.921,0.853776,0.848241
10:13:17,30-Sep-21,0.909,0.918,0.826281,0.842724
10:13:17,30-Sep-21,0.909,0.915,0.826281,0.837225
10:13:17,30-Sep-21,0.924,0.912,0.853776,0.831744
10:13:17,30-Sep-21,0.919,0.909,0.844561,0.826281
10:13:17,30-Sep-21,0.919,0.906,0.844561,0.820836
10:13:17,30-Sep-21,0.919,0.903,0.844561,0.815409
10:13:17,30-Sep-21,0.919,0.899,0.844561,0.808201
10:13:17,30-Sep-21,0.919,0.896,0.844561,0.802816
10:13:17,30-Sep-21,0.909,0.893,0.826281,0.797449
10:13:17,30-Sep-21,0.909,0.89,0.826281,0.7921
10:13:17,30-Sep-21,0.8895,0.887,0.79121025,0.786769
10:13:17,30-Sep-21,0.8895,0.883,0.79121025,0.779689
10:13:17,30-Sep-21,0.875,0.88,0.765625,0.7744
10:13:17,30-Sep-21,0.875,0.877,0.765625,0.769129
10:13:18,30-Sep-21,0.8505,0.874,0.72335025,0.763876
10:13:18,30-Sep-21,0.8505,0.871,0.72335025,0.758641
10:13:18,30-Sep-21,0.8505,0.868,0.72335025,0.753424
10:13:18,30-Sep-21,0.8505,0.865,0.72335025,0.748225
10:13:18,30-Sep-21,0.8405,0.863,0.70644025,0.744769
10:13:18,30-Sep-21,0.836,0.86,0.698896,0.7396
10:13:18,30-Sep-21,0.836,0.857,0.698896,0.734449
10:13:18,30-Sep-21,0.8405,0.854,0.70644025,0.729316
10:13:18,30-Sep-21,0.8405,0.852,0.70644025,0.725904
10:13:18,30-Sep-21,0.8405,0.849,0.70644025,0.720801
10:13:18,30-Sep-21,0.8405,0.847,0.70644025,0.717409
10:13:18,30-Sep-21,0.8555,0.845,0.73188025,0.714025
10:13:18,30-Sep-21,0.8555,0.843,0.73188025,0.710649
10:13:18,30-Sep-21,0.8555,0.84,0.73188025,0.7056
10:13:18,30-Sep-21,0.8555,0.838,0.73188025,0.702244
10:13:18,30-Sep-21,0.8555,0.837,0.73188025,0.700569
10:13:18,30-Sep-21,0.8555,0.835,0.73188025,0.697225
10:13:18,30-Sep-21,0.8505,0.833,0.72335025,0.693889
10:13:18,30-Sep-21,0.8505,0.831,0.72335025,0.690561
10:13:18,30-Sep-21,0.831,0.83,0.690561,0.6889
10:13:18,30-Sep-21,0.831,0.828,0.690561,0.685584
10:13:18,30-Sep-21,0.821,0.827,0.674041,0.683929
10:13:18,30-Sep-21,0.821,0.825,0.674041,0.680625
10:13:18,30-Sep-21,0.8115,0.824,0.65853225,0.678976
10:13:18,30-Sep-21,0.8015,0.823,0.64240225,0.677329
10:13:18,30-Sep-21,0.8015,0.822,0.64240225,0.675684
10:13:18,30-Sep-21,0.8015,0.821,0.64240225,0.674041
10:13:18,30-Sep-21,0.8115,0.82,0.65853225,0.6724
10:13:18,30-Sep-21,0.8115,0.819,0.65853225,0.670761
10:13:18,30-Sep-21,0.8115,0.819,0.65853225,0.670761
10:13:18,30-Sep-21,0.816,0.818,0.665856,0.669124
10:13:18,30-Sep-21,0.831,0.817,0.690561,0.667489
10:13:18,30-Sep-21,0.831,0.817,0.690561,0.667489
10:13:18,30-Sep-21,0.831,0.817,0.690561,0.667489
10:13:18,30-Sep-21,0.831,0.816,0.690561,0.665856
10:13:18,30-Sep-21,0.8115,0.816,0.65853225,0.665856
10:13:18,30-Sep-21,0.8115,0.816,0.65853225,0.665856
10:13:18,30-Sep-21,0.8065,0.815,0.65044225,0.664225
10:13:18,30-Sep-21,0.8065,0.815,0.65044225,0.664225
10:13:18,30-Sep-21,0.8065,0.815,0.65044225,0.664225
10:13:18,30-Sep-21,0.8065,0.815,0.65044225,0.664225
10:13:18,30-Sep-21,0.8065,0.815,0.65044225,0.664225
10:13:18,30-Sep-21,0.8065,0.815,0.65044225,0.664225
10:13:18,30-Sep-21,0.8065,0.815,0.65044225,0.664225
10:13:18,30-Sep-21,0.821,0.815,0.674041,0.664225
10:13:18,30-Sep-21,0.821,0.815,0.674041,0.664225
10:13:18,30-Sep-21,0.826,0.815,0.682276,0.664225
10:13:18,30-Sep-21,0.826,0.815,0.682276,0.664225
10:13:18,30-Sep-21,0.831,0.815,0.690561,0.664225
10:13:18,30-Sep-21,0.831,0.815,0.690561,0.664225
10:13:18,30-Sep-21,0.831,0.815,0.690561,0.664225
10:13:18,30-Sep-21,0.826,0.815,0.682276,0.664225
10:13:18,30-Sep-21,0.826,0.815,0.682276,0.664225
10:13:18,30-Sep-21,0.826,0.815,0.682276,0.664225
10:13:18,30-Sep-21,0.826,0.815,0.682276,0.664225
10:13:18,30-Sep-21,0.816,0.815,0.665856,0.664225
10:13:18,30-Sep-21,0.816,0.815,0.665856,0.664225
10:13:18,30-Sep-21,0.8115,0.815,0.65853225,0.664225
10:13:18,30-Sep-21,0.8115,0.815,0.65853225,0.664225
10:13:18,30-Sep-21,0.8015,0.815,0.64240225,0.664225
10:13:18,30-Sep-21,0.8015,0.815,0.64240225,0.664225
10:13:18,30-Sep-21,0.8015,0.815,0.64240225,0.664225
10:13:18,30-Sep-21,0.7965,0.814,0.63441225,0.662596
10:13:18,30-Sep-21,0.7965,0.814,0.63441225,0.662596
10:13:18,30-Sep-21,0.7965,0.814,0.63441225,0.662596
10:13:18,30-Sep-21,0.8015,0.814,0.64240225,0.662596
10:13:18,30-Sep-21,0.8015,0.814,0.64240225,0.662596
10:13:18,30-Sep-21,0.8065,0.814,0.65044225,0.662596
10:13:18,30-Sep-21,0.8065,0.813,0.65044225,0.660969
10:13:18,30-Sep-21,0.826,0.813,0.682276,0.660969
10:13:18,30-Sep-21,0.826,0.813,0.682276,0.660969
10:13:18,30-Sep-21,0.826,0.813,0.682276,0.660969
10:13:18,30-Sep-21,0.826,0.812,0.682276,0.659344
10:13:18,30-Sep-21,0.826,0.812,0.682276,0.659344
10:13:18,30-Sep-21,0.826,0.812,0.682276,0.659344
10:13:18,30-Sep-21,0.826,0.811,0.682276,0.657721
10:13:18,30-Sep-21,0.821,0.811,0.674041,0.657721
10:13:18,30-Sep-21,0.821,0.81,0.674041,0.6561
10:13:18,30-Sep-21,0.816,0.81,0.665856,0.6561
10:13:18,30-Sep-21,0.816,0.809,0.665856,0.654481
10:13:18,30-Sep-21,0.8065,0.809,0.65044225,0.654481
10:13:18,30-Sep-21,0.8065,0.809,0.65044225,0.654481
10:13:18,30-Sep-21,0.8015,0.808,0.64240225,0.652864
10:13:18,30-Sep-21,0.792,0.808,0.627264,0.652864
10:13:18,30-Sep-21,0.792,0.807,0.627264,0.651249
10:13:18,30-Sep-21,0.792,0.806,0.627264,0.649636
10:13:18,30-Sep-21,0.792,0.806,0.627264,0.649636
10:13:18,30-Sep-21,0.8015,0.805,0.64240225,0.648025
10:13:18,30-Sep-21,0.8015,0.805,0.64240225,0.648025
10:13:18,30-Sep-21,0.8065,0.804,0.65044225,0.646416
10:13:18,30-Sep-21,0.8065,0.804,0.65044225,0.646416
10:13:18,30-Sep-21,0.8115,0.803,0.65853225,0.644809
10:13:18,30-Sep-21,0.8115,0.803,0.65853225,0.644809
10:13:18,30-Sep-21,0.816,0.802,0.665856,0.643204
10:13:18,30-Sep-21,0.816,0.802,0.665856,0.643204
10:13:18,30-Sep-21,0.816,0.802,0.665856,0.643204
10:13:18,30-Sep-21,0.8065,0.801,0.65044225,0.641601
10:13:18,30-Sep-21,0.8065,0.801,0.65044225,0.641601
10:13:18,30-Sep-21,0.8065,0.8,0.65044225,0.64
10:13:18,30-Sep-21,0.792,0.8,0.627264,0.64
10:13:19,30-Sep-21,0.792,0.8,0.627264,0.64
10:13:19,30-Sep-21,0.792,0.8,0.627264,0.64
10:13:19,30-Sep-21,0.792,0.799,0.627264,0.638401
10:13:19,30-Sep-21,0.787,0.799,0.619369,0.638401
10:13:19,30-Sep-21,0.782,0.799,0.611524,0.638401
10:13:19,30-Sep-21,0.782,0.799,0.611524,0.638401
10:13:19,30-Sep-21,0.787,0.799,0.619369,0.638401
10:13:19,30-Sep-21,0.787,0.799,0.619369,0.638401
10:13:19,30-Sep-21,0.8015,0.799,0.64240225,0.638401
10:13:19,30-Sep-21,0.8015,0.799,0.64240225,0.638401
10:13:19,30-Sep-21,0.8015,0.799,0.64240225,0.638401
10:13:19,30-Sep-21,0.8015,0.799,0.64240225,0.638401
10:13:19,30-Sep-21,0.8065,0.8,0.65044225,0.64
10:13:19,30-Sep-21,0.8065,0.8,0.65044225,0.64
10:13:19,30-Sep-21,0.8065,0.8,0.65044225,0.64
10:13:19,30-Sep-21,0.8065,0.801,0.65044225,0.641601
10:13:19,30-Sep-21,0.8065,0.801,0.65044225,0.641601
10:13:19,30-Sep-21,0.8115,0.802,0.65853225,0.643204
10:13:19,30-Sep-21,0.8115,0.802,0.65853225,0.643204
10:13:19,30-Sep-21,0.8115,0.803,0.65853225,0.644809
10:13:19,30-Sep-21,0.8115,0.803,0.65853225,0.644809
10:13:19,30-Sep-21,0.8115,0.804,0.65853225,0.646416
10:13:19,30-Sep-21,0.8115,0.805,0.65853225,0.648025
10:13:19,30-Sep-21,0.8065,0.805,0.65044225,0.648025
10:13:19,30-Sep-21,0.8065,0.806,0.65044225,0.649636
10:13:19,30-Sep-21,0.8065,0.807,0.65044225,0.651249
10:13:19,30-Sep-21,0.8065,0.808,0.65044225,0.652864
10:13:19,30-Sep-21,0.8065,0.809,0.65044225,0.654481
10:13:19,30-Sep-21,0.8065,0.81,0.65044225,0.6561
10:13:19,30-Sep-21,0.8065,0.811,0.65044225,0.657721
10:13:19,30-Sep-21,0.8065,0.812,0.65044225,0.659344
10:13:19,30-Sep-21,0.8015,0.813,0.64240225,0.660969
10:13:19,30-Sep-21,0.8015,0.814,0.64240225,0.662596
10:13:19,30-Sep-21,0.8015,0.815,0.64240225,0.664225
10:13:19,30-Sep-21,0.8015,0.816,0.64240225,0.665856
10:13:19,30-Sep-21,0.8015,0.818,0.64240225,0.669124
10:13:19,30-Sep-21,0.8065,0.819,0.65044225,0.670761
10:13:19,30-Sep-21,0.8065,0.82,0.65044225,0.6724
10:13:19,30-Sep-21,0.8065,0.821,0.65044225,0.674041
10:13:19,30-Sep-21,0.8115,0.822,0.65853225,0.675684
10:13:19,30-Sep-21,0.8115,0.824,0.65853225,0.678976
10:13:19,30-Sep-21,0.821,0.825,0.674041,0.680625
10:13:19,30-Sep-21,0.821,0.826,0.674041,0.682276
10:13:19,30-Sep-21,0.8405,0.827,0.70644025,0.683929
10:13:19,30-Sep-21,0.8405,0.828,0.70644025,0.685584
10:13:19,30-Sep-21,0.8455,0.829,0.71487025,0.687241
10:13:19,30-Sep-21,0.8455,0.83,0.71487025,0.6889
10:13:19,30-Sep-21,0.8455,0.831,0.71487025,0.690561
10:13:19,30-Sep-21,0.8505,0.832,0.72335025,0.692224
10:13:19,30-Sep-21,0.8505,0.833,0.72335025,0.693889
10:13:19,30-Sep-21,0.836,0.834,0.698896,0.695556
10:13:19,30-Sep-21,0.836,0.835,0.698896,0.697225
10:13:19,30-Sep-21,0.836,0.835,0.698896,0.697225
10:13:19,30-Sep-21,0.836,0.836,0.698896,0.698896
10:13:19,30-Sep-21,0.836,0.836,0.698896,0.698896
10:13:19,30-Sep-21,0.831,0.837,0.690561,0.700569
10:13:19,30-Sep-21,0.831,0.837,0.690561,0.700569
10:13:19,30-Sep-21,0.826,0.837,0.682276,0.700569
10:13:19,30-Sep-21,0.826,0.837,0.682276,0.700569
10:13:19,30-Sep-21,0.826,0.838,0.682276,0.702244
10:13:19,30-Sep-21,0.826,0.837,0.682276,0.700569
10:13:19,30-Sep-21,0.826,0.837,0.682276,0.700569
10:13:19,30-Sep-21,0.8405,0.837,0.70644025,0.700569
10:13:19,30-Sep-21,0.8405,0.837,0.70644025,0.700569
10:13:19,30-Sep-21,0.8455,0.836,0.71487025,0.698896
10:13:19,30-Sep-21,0.8555,0.836,0.73188025,0.698896
10:13:19,30-Sep-21,0.8555,0.835,0.73188025,0.697225
10:13:19,30-Sep-21,0.8555,0.834,0.73188025,0.695556
10:13:19,30-Sep-21,0.8555,0.833,0.73188025,0.693889
10:13:19,30-Sep-21,0.8555,0.832,0.73188025,0.692224
10:13:19,30-Sep-21,0.8455,0.831,0.71487025,0.690561
10:13:19,30-Sep-21,0.8455,0.83,0.71487025,0.6889
10:13:19,30-Sep-21,0.8455,0.829,0.71487025,0.687241
10:13:19,30-Sep-21,0.8405,0.828,0.70644025,0.685584
10:13:19,30-Sep-21,0.8405,0.827,0.70644025,0.683929
10:13:19,30-Sep-21,0.8405,0.825,0.70644025,0.680625
10:13:19,30-Sep-21,0.831,0.824,0.690561,0.678976
10:13:19,30-Sep-21,0.831,0.823,0.690561,0.677329
10:13:19,30-Sep-21,0.8115,0.821,0.65853225,0.674041
10:13:19,30-Sep-21,0.8115,0.82,0.65853225,0.6724
10:13:19,30-Sep-21,0.8015,0.819,0.64240225,0.670761
10:13:19,30-Sep-21,0.8015,0.817,0.64240225,0.667489
10:13:19,30-Sep-21,0.8015,0.816,0.64240225,0.665856
10:13:19,30-Sep-21,0.792,0.815,0.627264,0.664225
10:13:19,30-Sep-21,0.792,0.813,0.627264,0.660969
10:13:19,30-Sep-21,0.792,0.812,0.627264,0.659344
10:13:19,30-Sep-21,0.792,0.811,0.627264,0.657721
10:13:19,30-Sep-21,0.8065,0.81,0.65044225,0.6561
10:13:19,30-Sep-21,0.8065,0.809,0.65044225,0.654481
10:13:19,30-Sep-21,0.8065,0.808,0.65044225,0.652864
10:13:19,30-Sep-21,0.8065,0.807,0.65044225,0.651249
10:13:19,30-Sep-21,0.8065,0.806,0.65044225,0.649636
10:13:19,30-Sep-21,0.8065,0.805,0.65044225,0.648025
10:13:19,30-Sep-21,0.8015,0.805,0.64240225,0.648025
10:13:19,30-Sep-21,0.8015,0.804,0.64240225,0.646416
10:13:19,30-Sep-21,0.792,0.804,0.627264,0.646416
10:13:19,30-Sep-21,0.792,0.803,0.627264,0.644809
10:13:19,30-Sep-21,0.787,0.803,0.619369,0.644809
10:13:19,30-Sep-21,0.787,0.802,0.619369,0.643204
10:13:19,30-Sep-21,0.777,0.802,0.603729,0.643204
10:13:19,30-Sep-21,0.777,0.802,0.603729,0.643204
10:13:19,30-Sep-21,0.777,0.802,0.603729,0.643204
10:13:19,30-Sep-21,0.782,0.802,0.611524,0.643204
10:13:19,30-Sep-21,0.782,0.802,0.611524,0.643204
10:13:19,30-Sep-21,0.792,0.801,0.627264,0.641601
10:13:19,30-Sep-21,0.816,0.801,0.665856,0.641601
10:13:19,30-Sep-21,0.816,0.801,0.665856,0.641601
10:13:19,30-Sep-21,0.816,0.801,0.665856,0.641601
10:13:19,30-Sep-21,0.826,0.801,0.682276,0.641601
10:13:19,30-Sep-21,0.826,0.801,0.682276,0.641601
10:13:19,30-Sep-21,0.821,0.801,0.674041,0.641601
10:13:19,30-Sep-21,0.821,0.801,0.674041,0.641601
10:13:19,30-Sep-21,0.821,0.801,0.674041,0.641601
10:13:19,30-Sep-21,0.821,0.801,0.674041,0.641601
10:13:19,30-Sep-21,0.821,0.801,0.674041,0.641601
10:13:19,30-Sep-21,0.821,0.801,0.674041,0.641601
10:13:19,30-Sep-21,0.8115,0.801,0.65853225,0.641601
10:13:19,30-Sep-21,0.8115,0.8,0.65853225,0.64
10:13:20,30-Sep-21,0.8115,0.8,0.65853225,0.64
10:13:20,30-Sep-21,0.8065,0.8,0.65044225,0.64
10:13:20,30-Sep-21,0.8065,0.799,0.65044225,0.638401
10:13:20,30-Sep-21,0.7965,0.799,0.63441225,0.638401
10:13:20,30-Sep-21,0.787,0.799,0.619369,0.638401
10:13:20,30-Sep-21,0.787,0.798,0.619369,0.636804
10:13:20,30-Sep-21,0.787,0.798,0.619369,0.636804
10:13:20,30-Sep-21,0.792,0.797,0.627264,0.635209
10:13:20,30-Sep-21,0.7965,0.797,0.63441225,0.635209
10:13:20,30-Sep-21,0.7965,0.796,0.63441225,0.633616
10:13:20,30-Sep-21,0.7965,0.796,0.63441225,0.633616
10:13:20,30-Sep-21,0.8015,0.795,0.64240225,0.632025
10:13:20,30-Sep-21,0.8015,0.794,0.64240225,0.630436
10:13:20,30-Sep-21,0.8015,0.794,0.64240225,0.630436
10:13:20,30-Sep-21,0.8015,0.793,0.64240225,0.628849
10:13:20,30-Sep-21,0.792,0.793,0.627264,0.628849
10:13:20,30-Sep-21,0.792,0.792,0.627264,0.627264
10:13:20,30-Sep-21,0.787,0.791,0.619369,0.625681
10:13:20,30-Sep-21,0.777,0.791,0.603729,0.625681
10:13:20,30-Sep-21,0.772,0.79,0.595984,0.6241
10:13:20,30-Sep-21,0.7675,0.79,0.58905625,0.6241
10:13:20,30-Sep-21,0.7675,0.789,0.58905625,0.622521
10:13:20,30-Sep-21,0.772,0.789,0.595984,0.622521
10:13:20,30-Sep-21,0.772,0.788,0.595984,0.620944
10:13:20,30-Sep-21,0.777,0.788,0.603729,0.620944
10:13:20,30-Sep-21,0.792,0.787,0.627264,0.619369
10:13:20,30-Sep-21,0.792,0.787,0.627264,0.619369
10:13:20,30-Sep-21,0.7965,0.786,0.63441225,0.617796
10:13:20,30-Sep-21,0.7965,0.786,0.63441225,0.617796
10:13:20,30-Sep-21,0.7965,0.786,0.63441225,0.617796
10:13:20,30-Sep-21,0.7965,0.785,0.63441225,0.616225
10:13:20,30-Sep-21,0.7965,0.785,0.63441225,0.616225
10:13:20,30-Sep-21,0.7965,0.785,0.63441225,0.616225
10:13:20,30-Sep-21,0.787,0.784,0.619369,0.614656
10:13:20,30-Sep-21,0.787,0.784,0.619369,0.614656
10:13:20,30-Sep-21,0.787,0.784,0.619369,0.614656
10:13:20,30-Sep-21,0.787,0.784,0.619369,0.614656
10:13:20,30-Sep-21,0.787,0.784,0.619369,0.614656
10:13:20,30-Sep-21,0.777,0.784,0.603729,0.614656
10:13:20,30-Sep-21,0.777,0.784,0.603729,0.614656
10:13:20,30-Sep-21,0.777,0.784,0.603729,0.614656
10:13:20,30-Sep-21,0.777,0.784,0.603729,0.614656
10:13:20,30-Sep-21,0.777,0.784,0.603729,0.614656
10:13:20,30-Sep-21,0.777,0.784,0.603729,0.614656
10:13:20,30-Sep-21,0.777,0.784,0.603729,0.614656
10:13:20,30-Sep-21,0.777,0.784,0.603729,0.614656
10:13:20,30-Sep-21,0.777,0.785,0.603729,0.616225
10:13:20,30-Sep-21,0.777,0.785,0.603729,0.616225
10:13:20,30-Sep-21,0.777,0.785,0.603729,0.616225
10:13:20,30-Sep-21,0.777,0.785,0.603729,0.616225
10:13:20,30-Sep-21,0.777,0.786,0.603729,0.617796
10:13:20,30-Sep-21,0.777,0.786,0.603729,0.617796
10:13:20,30-Sep-21,0.782,0.786,0.611524,0.617796
10:13:20,30-Sep-21,0.782,0.786,0.611524,0.617796
10:13:20,30-Sep-21,0.8015,0.787,0.64240225,0.619369
10:13:20,30-Sep-21,0.8015,0.787,0.64240225,0.619369
10:13:20,30-Sep-21,0.8015,0.787,0.64240225,0.619369
10:13:20,30-Sep-21,0.8015,0.787,0.64240225,0.619369
10:13:20,30-Sep-21,0.8015,0.788,0.64240225,0.620944
10:13:20,30-Sep-21,0.8015,0.788,0.64240225,0.620944
10:13:20,30-Sep-21,0.8015,0.788,0.64240225,0.620944
10:13:20,30-Sep-21,0.8015,0.788,0.64240225,0.620944
10:13:20,30-Sep-21,0.8015,0.788,0.64240225,0.620944
10:13:20,30-Sep-21,0.792,0.789,0.627264,0.622521
10:13:20,30-Sep-21,0.792,0.789,0.627264,0.622521
10:13:20,30-Sep-21,0.792,0.789,0.627264,0.622521
10:13:20,30-Sep-21,0.792,0.789,0.627264,0.622521
10:13:20,30-Sep-21,0.792,0.789,0.627264,0.622521
10:13:20,30-Sep-21,0.787,0.789,0.619369,0.622521
10:13:20,30-Sep-21,0.787,0.789,0.619369,0.622521
10:13:20,30-Sep-21,0.777,0.789,0.603729,0.622521
10:13:20,30-Sep-21,0.777,0.789,0.603729,0.622521
10:13:20,30-Sep-21,0.777,0.789,0.603729,0.622521
10:13:20,30-Sep-21,0.777,0.789,0.603729,0.622521
10:13:20,30-Sep-21,0.777,0.789,0.603729,0.622521
10:13:20,30-Sep-21,0.777,0.789,0.603729,0.622521
10:13:20,30-Sep-21,0.777,0.789,0.603729,0.622521
10:13:20,30-Sep-21,0.777,0.789,0.603729,0.622521
10:13:20,30-Sep-21,0.777,0.789,0.603729,0.622521
10:13:20,30-Sep-21,0.777,0.788,0.603729,0.620944
10:13:20,30-Sep-21,0.787,0.788,0.619369,0.620944
10:13:20,30-Sep-21,0.787,0.788,0.619369,0.620944
10:13:20,30-Sep-21,0.787,0.788,0.619369,0.620944
10:13:20,30-Sep-21,0.787,0.787,0.619369,0.619369
10:13:20,30-Sep-21,0.787,0.787,0.619369,0.619369
10:13:20,30-Sep-21,0.7965,0.787,0.63441225,0.619369
10:13:20,30-Sep-21,0.7965,0.786,0.63441225,0.617796
10:13:20,30-Sep-21,0.8015,0.786,0.64240225,0.617796
10:13:20,30-Sep-21,0.8015,0.785,0.64240225,0.616225
10:13:20,30-Sep-21,0.7965,0.785,0.63441225,0.616225
10:13:20,30-Sep-21,0.7965,0.784,0.63441225,0.614656
10:13:20,30-Sep-21,0.792,0.784,0.627264,0.614656
10:13:20,30-Sep-21,0.792,0.783,0.627264,0.613089
10:13:20,30-Sep-21,0.792,0.782,0.627264,0.611524
10:13:20,30-Sep-21,0.787,0.781,0.619369,0.609961
10:13:20,30-Sep-21,0.777,0.781,0.603729,0.609961
10:13:20,30-Sep-21,0.777,0.78,0.603729,0.6084
10:13:20,30-Sep-21,0.772,0.779,0.595984,0.606841
10:13:20,30-Sep-21,0.7625,0.778,0.58140625,0.605284
10:13:20,30-Sep-21,0.7625,0.777,0.58140625,0.603729
10:13:20,30-Sep-21,0.7625,0.776,0.58140625,0.602176
10:13:20,30-Sep-21,0.7625,0.775,0.58140625,0.600625
10:13:20,30-Sep-21,0.7625,0.774,0.58140625,0.599076
10:13:20,30-Sep-21,0.7625,0.773,0.58140625,0.597529
10:13:20,30-Sep-21,0.782,0.772,0.611524,0.595984
10:13:20,30-Sep-21,0.782,0.771,0.611524,0.594441
10:13:20,30-Sep-21,0.782,0.77,0.611524,0.5929
10:13:20,30-Sep-21,0.782,0.769,0.611524,0.591361
10:13:20,30-Sep-21,0.782,0.768,0.611524,0.589824
10:13:20,30-Sep-21,0.782,0.767,0.611524,0.588289
10:13:20,30-Sep-21,0.782,0.766,0.611524,0.586756
10:13:20,30-Sep-21,0.772,0.765,0.595984,0.585225
10:13:20,30-Sep-21,0.772,0.764,0.595984,0.583696
10:13:20,30-Sep-21,0.772,0.763,0.595984,0.582169
10:13:20,30-Sep-21,0.7675,0.762,0.58905625,0.580644
10:13:20,30-Sep-21,0.7675,0.761,0.58905625,0.579121
10:13:20,30-Sep-21,0.7625,0.76,0.58140625,0.5776
10:13:21,30-Sep-21,0.7625,0.759,0.58140625,0.576081
10:13:21,30-Sep-21,0.7525,0.759,0.56625625,0.576081
10:13:21,30-Sep-21,0.748,0.758,0.559504,0.574564
10:13:21,30-Sep-21,0.748,0.757,0.559504,0.573049
10:13:21,30-Sep-21,0.748,0.757,0.559504,0.573049
10:13:21,30-Sep-21,0.7525,0.757,0.56625625,0.573049
10:13:21,30-Sep-21,0.7525,0.756,0.56625625,0.571536
10:13:21,30-Sep-21,0.7625,0.756,0.58140625,0.571536
10:13:21,30-Sep-21,0.7575,0.756,0.57380625,0.571536
10:13:21,30-Sep-21,0.7575,0.756,0.57380625,0.571536
10:13:21,30-Sep-21,0.7575,0.756,0.57380625,0.571536
10:13:21,30-Sep-21,0.7525,0.756,0.56625625,0.571536
10:13:21,30-Sep-21,0.7525,0.756,0.56625625,0.571536
10:13:21,30-Sep-21,0.748,0.757,0.559504,0.573049
10:13:21,30-Sep-21,0.748,0.757,0.559504,0.573049
10:13:21,30-Sep-21,0.738,0.758,0.544644,0.574564
10:13:21,30-Sep-21,0.738,0.758,0.544644,0.574564
10:13:21,30-Sep-21,0.738,0.759,0.544644,0.576081
10:13:21,30-Sep-21,0.738,0.76,0.544644,0.5776
10:13:21,30-Sep-21,0.738,0.761,0.544644,0.579121
10:13:21,30-Sep-21,0.748,0.763,0.559504,0.582169
10:13:21,30-Sep-21,0.7675,0.764,0.58905625,0.583696
10:13:21,30-Sep-21,0.7675,0.765,0.58905625,0.585225
10:13:21,30-Sep-21,0.7675,0.767,0.58905625,0.588289
10:13:21,30-Sep-21,0.772,0.769,0.595984,0.591361
10:13:21,30-Sep-21,0.787,0.77,0.619369,0.5929
10:13:21,30-Sep-21,0.787,0.772,0.619369,0.595984
10:13:21,30-Sep-21,0.787,0.774,0.619369,0.599076
10:13:21,30-Sep-21,0.787,0.776,0.619369,0.602176
10:13:21,30-Sep-21,0.792,0.778,0.627264,0.605284
10:13:21,30-Sep-21,0.792,0.78,0.627264,0.6084
10:13:21,30-Sep-21,0.787,0.782,0.619369,0.611524
10:13:21,30-Sep-21,0.787,0.784,0.619369,0.614656
10:13:21,30-Sep-21,0.787,0.786,0.619369,0.617796
10:13:21,30-Sep-21,0.787,0.789,0.619369,0.622521
10:13:21,30-Sep-21,0.7965,0.791,0.63441225,0.625681
10:13:21,30-Sep-21,0.7965,0.793,0.63441225,0.628849
10:13:21,30-Sep-21,0.7965,0.795,0.63441225,0.632025
10:13:21,30-Sep-21,0.7965,0.798,0.63441225,0.636804
10:13:21,30-Sep-21,0.7965,0.8,0.63441225,0.64
10:13:21,30-Sep-21,0.792,0.802,0.627264,0.643204
10:13:21,30-Sep-21,0.792,0.805,0.627264,0.648025
10:13:21,30-Sep-21,0.792,0.807,0.627264,0.651249
10:13:21,30-Sep-21,0.7965,0.809,0.63441225,0.654481
10:13:21,30-Sep-21,0.7965,0.812,0.63441225,0.659344
10:13:21,30-Sep-21,0.8015,0.814,0.64240225,0.662596
10:13:21,30-Sep-21,0.8015,0.816,0.64240225,0.665856
10:13:21,30-Sep-21,0.8065,0.818,0.65044225,0.669124
10:13:21,30-Sep-21,0.8065,0.82,0.65044225,0.6724
10:13:21,30-Sep-21,0.831,0.822,0.690561,0.675684
10:13:21,30-Sep-21,0.831,0.824,0.690561,0.678976
10:13:21,30-Sep-21,0.8405,0.826,0.70644025,0.682276
10:13:21,30-Sep-21,0.8455,0.828,0.71487025,0.685584
10:13:21,30-Sep-21,0.8505,0.829,0.72335025,0.687241
10:13:21,30-Sep-21,0.8505,0.831,0.72335025,0.690561
10:13:21,30-Sep-21,0.8555,0.833,0.73188025,0.693889
10:13:21,30-Sep-21,0.8505,0.834,0.72335025,0.695556
10:13:21,30-Sep-21,0.8505,0.835,0.72335025,0.697225
10:13:21,30-Sep-21,0.8505,0.836,0.72335025,0.698896
10:13:21,30-Sep-21,0.8455,0.838,0.71487025,0.702244
10:13:21,30-Sep-21,0.8405,0.839,0.70644025,0.703921
10:13:21,30-Sep-21,0.836,0.839,0.698896,0.703921
10:13:21,30-Sep-21,0.836,0.84,0.698896,0.7056
10:13:21,30-Sep-21,0.8405,0.841,0.70644025,0.707281
10:13:21,30-Sep-21,0.836,0.842,0.698896,0.708964
10:13:21,30-Sep-21,0.836,0.842,0.698896,0.708964
10:13:21,30-Sep-21,0.836,0.843,0.698896,0.710649
10:13:21,30-Sep-21,0.8405,0.843,0.70644025,0.710649
10:13:21,30-Sep-21,0.8505,0.843,0.72335025,0.710649
10:13:21,30-Sep-21,0.8505,0.843,0.72335025,0.710649
10:13:21,30-Sep-21,0.8505,0.843,0.72335025,0.710649
10:13:21,30-Sep-21,0.8455,0.843,0.71487025,0.710649
10:13:21,30-Sep-21,0.8455,0.843,0.71487025,0.710649
10:13:21,30-Sep-21,0.8455,0.843,0.71487025,0.710649
10:13:21,30-Sep-21,0.8405,0.843,0.70644025,0.710649
10:13:21,30-Sep-21,0.8405,0.843,0.70644025,0.710649
10:13:21,30-Sep-21,0.831,0.842,0.690561,0.708964
10:13:21,30-Sep-21,0.826,0.842,0.682276,0.708964
10:13:21,30-Sep-21,0.826,0.841,0.682276,0.707281
10:13:21,30-Sep-21,0.826,0.841,0.682276,0.707281
10:13:21,30-Sep-21,0.826,0.84,0.682276,0.7056
10:13:21,30-Sep-21,0.826,0.84,0.682276,0.7056
10:13:21,30-Sep-21,0.826,0.839,0.682276,0.703921
10:13:21,30-Sep-21,0.826,0.838,0.682276,0.702244
10:13:21,30-Sep-21,0.836,0.837,0.698896,0.700569
10:13:21,30-Sep-21,0.8405,0.837,0.70644025,0.700569
10:13:21,30-Sep-21,0.8405,0.836,0.70644025,0.698896
10:13:21,30-Sep-21,0.8455,0.835,0.71487025,0.697225
10:13:21,30-Sep-21,0.8455,0.834,0.71487025,0.695556
10:13:21,30-Sep-21,0.8455,0.833,0.71487025,0.693889
10:13:21,30-Sep-21,0.8405,0.832,0.70644025,0.692224
10:13:21,30-Sep-21,0.8405,0.831,0.70644025,0.690561
10:13:21,30-Sep-21,0.8405,0.831,0.70644025,0.690561
10:13:21,30-Sep-21,0.836,0.83,0.698896,0.6889
10:13:21,30-Sep-21,0.836,0.829,0.698896,0.687241
10:13:21,30-Sep-21,0.836,0.828,0.698896,0.685584
10:13:21,30-Sep-21,0.831,0.827,0.690561,0.683929
10:13:21,30-Sep-21,0.831,0.825,0.690561,0.680625
10:13:21,30-Sep-21,0.831,0.824,0.690561,0.678976
10:13:21,30-Sep-21,0.816,0.823,0.665856,0.677329
10:13:21,30-Sep-21,0.816,0.822,0.665856,0.675684
10:13:21,30-Sep-21,0.816,0.821,0.665856,0.674041
10:13:21,30-Sep-21,0.816,0.82,0.665856,0.6724
10:13:21,30-Sep-21,0.8115,0.819,0.65853225,0.670761
10:13:22,30-Sep-21,0.8115,0.818,0.65853225,0.669124
10:13:22,30-Sep-21,0.8115,0.817,0.65853225,0.667489
10:13:22,30-Sep-21,0.8115,0.816,0.65853225,0.665856
10:13:22,30-Sep-21,0.8115,0.815,0.65853225,0.664225
10:13:22,30-Sep-21,0.8015,0.814,0.64240225,0.662596
10:13:22,30-Sep-21,0.8015,0.814,0.64240225,0.662596
10:13:22,30-Sep-21,0.8015,0.813,0.64240225,0.660969
10:13:22,30-Sep-21,0.8015,0.812,0.64240225,0.659344
10:13:22,30-Sep-21,0.8015,0.811,0.64240225,0.657721
10:13:22,30-Sep-21,0.8015,0.81,0.64240225,0.6561
10:13:22,30-Sep-21,0.821,0.809,0.674041,0.654481
10:13:22,30-Sep-21,0.821,0.808,0.674041,0.652864
10:13:22,30-Sep-21,0.821,0.808,0.674041,0.652864
10:13:22,30-Sep-21,0.821,0.807,0.674041,0.651249
10:13:22,30-Sep-21,0.821,0.806,0.674041,0.649636
10:13:22,30-Sep-21,0.821,0.805,0.674041,0.648025
10:13:22,30-Sep-21,0.816,0.805,0.665856,0.648025
10:13:22,30-Sep-21,0.8065,0.804,0.65044225,0.646416
10:13:22,30-Sep-21,0.8065,0.803,0.65044225,0.644809
10:13:22,30-Sep-21,0.8015,0.803,0.64240225,0.644809
10:13:22,30-Sep-21,0.8015,0.802,0.64240225,0.643204
10:13:22,30-Sep-21,0.8015,0.802,0.64240225,0.643204
10:13:22,30-Sep-21,0.8015,0.801,0.64240225,0.641601
10:13:22,30-Sep-21,0.787,0.801,0.619369,0.641601
10:13:22,30-Sep-21,0.787,0.8,0.619369,0.64
10:13:22,30-Sep-21,0.787,0.8,0.619369,0.64
10:13:22,30-Sep-21,0.787,0.799,0.619369,0.638401
10:13:22,30-Sep-21,0.792,0.799,0.627264,0.638401
10:13:22,30-Sep-21,0.792,0.798,0.627264,0.636804
10:13:22,30-Sep-21,0.792,0.798,0.627264,0.636804
10:13:22,30-Sep-21,0.792,0.797,0.627264,0.635209
10:13:22,30-Sep-21,0.792,0.797,0.627264,0.635209
10:13:22,30-Sep-21,0.8065,0.797,0.65044225,0.635209
10:13:22,30-Sep-21,0.8065,0.796,0.65044225,0.633616
10:13:22,30-Sep-21,0.8115,0.796,0.65853225,0.633616
10:13:22,30-Sep-21,0.8115,0.796,0.65853225,0.633616
10:13:22,30-Sep-21,0.8065,0.796,0.65044225,0.633616
10:13:22,30-Sep-21,0.8065,0.795,0.65044225,0.632025
10:13:22,30-Sep-21,0.8065,0.795,0.65044225,0.632025
10:13:22,30-Sep-21,0.8015,0.795,0.64240225,0.632025
10:13:22,30-Sep-21,0.8015,0.795,0.64240225,0.632025
10:13:22,30-Sep-21,0.792,0.795,0.627264,0.632025
10:13:22,30-Sep-21,0.787,0.794,0.619369,0.630436
10:13:22,30-Sep-21,0.787,0.794,0.619369,0.630436
10:13:22,30-Sep-21,0.787,0.794,0.619369,0.630436
10:13:22,30-Sep-21,0.782,0.794,0.611524,0.630436
10:13:22,30-Sep-21,0.782,0.794,0.611524,0.630436
10:13:22,30-Sep-21,0.782,0.794,0.611524,0.630436
10:13:22,30-Sep-21,0.792,0.794,0.627264,0.630436
10:13:22,30-Sep-21,0.792,0.794,0.627264,0.630436
10:13:22,30-Sep-21,0.792,0.794,0.627264,0.630436
10:13:22,30-Sep-21,0.8065,0.794,0.65044225,0.630436
10:13:22,30-Sep-21,0.8065,0.794,0.65044225,0.630436
10:13:22,30-Sep-21,0.8065,0.794,0.65044225,0.630436
10:13:22,30-Sep-21,0.8065,0.794,0.65044225,0.630436
10:13:22,30-Sep-21,0.8065,0.794,0.65044225,0.630436
10:13:22,30-Sep-21,0.7965,0.794,0.63441225,0.630436
10:13:22,30-Sep-21,0.787,0.794,0.619369,0.630436
10:13:22,30-Sep-21,0.787,0.794,0.619369,0.630436
10:13:22,30-Sep-21,0.772,0.794,0.595984,0.630436
10:13:22,30-Sep-21,0.772,0.794,0.595984,0.630436
10:13:22,30-Sep-21,0.772,0.794,0.595984,0.630436
10:13:22,30-Sep-21,0.772,0.794,0.595984,0.630436
10:13:22,30-Sep-21,0.7675,0.795,0.58905625,0.632025
10:13:22,30-Sep-21,0.772,0.795,0.595984,0.632025
10:13:22,30-Sep-21,0.772,0.795,0.595984,0.632025
10:13:22,30-Sep-21,0.792,0.795,0.627264,0.632025
10:13:22,30-Sep-21,0.8015,0.795,0.64240225,0.632025
10:13:22,30-Sep-21,0.8015,0.795,0.64240225,0.632025
10:13:22,30-Sep-21,0.8015,0.794,0.64240225,0.630436
10:13:22,30-Sep-21,0.8015,0.794,0.64240225,0.630436
10:13:22,30-Sep-21,0.8115,0.794,0.65853225,0.630436
10:13:22,30-Sep-21,0.8115,0.794,0.65853225,0.630436
10:13:22,30-Sep-21,0.816,0.794,0.665856,0.630436
10:13:22,30-Sep-21,0.816,0.793,0.665856,0.628849
10:13:22,30-Sep-21,0.816,0.793,0.665856,0.628849
10:13:22,30-Sep-21,0.816,0.793,0.665856,0.628849
10:13:22,30-Sep-21,0.816,0.792,0.665856,0.627264
10:13:22,30-Sep-21,0.816,0.792,0.665856,0.627264
10:13:22,30-Sep-21,0.7965,0.791,0.63441225,0.625681
10:13:22,30-Sep-21,0.7965,0.791,0.63441225,0.625681
10:13:22,30-Sep-21,0.7965,0.79,0.63441225,0.6241
10:13:22,30-Sep-21,0.7965,0.79,0.63441225,0.6241
10:13:22,30-Sep-21,0.7965,0.789,0.63441225,0.622521
10:13:22,30-Sep-21,0.787,0.788,0.619369,0.620944
10:13:22,30-Sep-21,0.787,0.787,0.619369,0.619369
10:13:22,30-Sep-21,0.787,0.787,0.619369,0.619369
10:13:22,30-Sep-21,0.772,0.786,0.595984,0.617796
10:13:22,30-Sep-21,0.772,0.785,0.595984,0.616225
10:13:22,30-Sep-21,0.772,0.784,0.595984,0.614656
10:13:22,30-Sep-21,0.7675,0.784,0.58905625,0.614656
10:13:22,30-Sep-21,0.7675,0.783,0.58905625,0.613089
10:13:22,30-Sep-21,0.7675,0.782,0.58905625,0.611524
10:13:22,30-Sep-21,0.7675,0.781,0.58905625,0.609961
10:13:22,30-Sep-21,0.7675,0.781,0.58905625,0.609961
10:13:22,30-Sep-21,0.7675,0.78,0.58905625,0.6084
10:13:22,30-Sep-21,0.7675,0.779,0.58905625,0.606841
10:13:22,30-Sep-21,0.7675,0.779,0.58905625,0.606841
10:13:22,30-Sep-21,0.7675,0.778,0.58905625,0.605284
10:13:22,30-Sep-21,0.787,0.778,0.619369,0.605284
10:13:22,30-Sep-21,0.787,0.777,0.619369,0.603729
10:13:22,30-Sep-21,0.792,0.777,0.627264,0.603729
10:13:22,30-Sep-21,0.792,0.776,0.627264,0.602176
10:13:22,30-Sep-21,0.792,0.776,0.627264,0.602176
10:13:22,30-Sep-21,0.787,0.776,0.619369,0.602176
10:13:22,30-Sep-21,0.787,0.775,0.619369,0.600625
10:13:22,30-Sep-21,0.787,0.775,0.619369,0.600625
10:13:22,30-Sep-21,0.782,0.775,0.611524,0.600625
10:13:22,30-Sep-21,0.782,0.775,0.611524,0.600625
10:13:22,30-Sep-21,0.772,0.775,0.595984,0.600625
10:13:22,30-Sep-21,0.772,0.775,0.595984,0.600625
10:13:22,30-Sep-21,0.7625,0.775,0.58140625,0.600625
10:13:23,30-Sep-21,0.7575,0.775,0.57380625,0.600625
10:13:23,30-Sep-21,0.7575,0.775,0.57380625,0.600625
10:13:23,30-Sep-21,0.7575,0.775,0.57380625,0.600625
10:13:23,30-Sep-21,0.7575,0.775,0.57380625,0.600625
10:13:23,30-Sep-21,0.7575,0.776,0.57380625,0.602176
10:13:23,30-Sep-21,0.7675,0.776,0.58905625,0.602176
10:13:23,30-Sep-21,0.7675,0.776,0.58905625,0.602176
10:13:23,30-Sep-21,0.772,0.777,0.595984,0.603729
10:13:23,30-Sep-21,0.772,0.777,0.595984,0.603729
10:13:23,30-Sep-21,0.777,0.778,0.603729,0.605284
10:13:23,30-Sep-21,0.777,0.779,0.603729,0.606841
10:13:23,30-Sep-21,0.787,0.779,0.619369,0.606841
10:13:23,30-Sep-21,0.787,0.78,0.619369,0.6084
10:13:23,30-Sep-21,0.787,0.781,0.619369,0.609961
10:13:23,30-Sep-21,0.787,0.781,0.619369,0.609961
10:13:23,30-Sep-21,0.787,0.782,0.619369,0.611524
10:13:23,30-Sep-21,0.792,0.783,0.627264,0.613089
10:13:23,30-Sep-21,0.792,0.784,0.627264,0.614656
10:13:23,30-Sep-21,0.787,0.785,0.619369,0.616225
10:13:23,30-Sep-21,0.787,0.785,0.619369,0.616225
10:13:23,30-Sep-21,0.792,0.786,0.627264,0.617796
10:13:23,30-Sep-21,0.792,0.787,0.627264,0.619369
10:13:23,30-Sep-21,0.787,0.788,0.619369,0.620944
10:13:23,30-Sep-21,0.787,0.789,0.619369,0.622521
10:13:23,30-Sep-21,0.792,0.79,0.627264,0.6241
10:13:23,30-Sep-21,0.792,0.791,0.627264,0.625681
10:13:23,30-Sep-21,0.792,0.792,0.627264,0.627264
10:13:23,30-Sep-21,0.8015,0.793,0.64240225,0.628849
10:13:23,30-Sep-21,0.8065,0.794,0.65044225,0.630436
10:13:23,30-Sep-21,0.8065,0.795,0.65044225,0.632025
10:13:23,30-Sep-21,0.8015,0.796,0.64240225,0.633616
10:13:23,30-Sep-21,0.8015,0.797,0.64240225,0.635209
10:13:23,30-Sep-21,0.816,0.799,0.665856,0.638401
10:13:23,30-Sep-21,0.816,0.8,0.665856,0.64
10:13:23,30-Sep-21,0.816,0.801,0.665856,0.641601
10:13:23,30-Sep-21,0.816,0.802,0.665856,0.643204
10:13:23,30-Sep-21,0.816,0.804,0.665856,0.646416
10:13:23,30-Sep-21,0.816,0.805,0.665856,0.648025
10:13:23,30-Sep-21,0.816,0.807,0.665856,0.651249
10:13:23,30-Sep-21,0.816,0.808,0.665856,0.652864
10:13:23,30-Sep-21,0.8065,0.81,0.65044225,0.6561
10:13:23,30-Sep-21,0.8065,0.811,0.65044225,0.657721
10:13:23,30-Sep-21,0.8065,0.813,0.65044225,0.660969
10:13:23,30-Sep-21,0.8065,0.815,0.65044225,0.664225
10:13:23,30-Sep-21,0.8065,0.817,0.65044225,0.667489
10:13:23,30-Sep-21,0.7965,0.819,0.63441225,0.670761
10:13:23,30-Sep-21,0.7965,0.821,0.63441225,0.674041
10:13:23,30-Sep-21,0.8065,0.823,0.65044225,0.677329
10:13:23,30-Sep-21,0.8065,0.825,0.65044225,0.680625
10:13:23,30-Sep-21,0.8115,0.828,0.65853225,0.685584
10:13:23,30-Sep-21,0.8115,0.83,0.65853225,0.6889
10:13:23,30-Sep-21,0.8115,0.833,0.65853225,0.693889
10:13:23,30-Sep-21,0.826,0.836,0.682276,0.698896
10:13:23,30-Sep-21,0.826,0.838,0.682276,0.702244
10:13:23,30-Sep-21,0.826,0.841,0.682276,0.707281
10:13:23,30-Sep-21,0.826,0.844,0.682276,0.712336
10:13:23,30-Sep-21,0.826,0.847,0.682276,0.717409
10:13:23,30-Sep-21,0.8405,0.85,0.70644025,0.7225
10:13:23,30-Sep-21,0.8405,0.854,0.70644025,0.729316
10:13:23,30-Sep-21,0.865,0.857,0.748225,0.734449
10:13:23,30-Sep-21,0.865,0.86,0.748225,0.7396
10:13:23,30-Sep-21,0.88,0.864,0.7744,0.746496
10:13:23,30-Sep-21,0.8895,0.867,0.79121025,0.751689
10:13:23,30-Sep-21,0.8895,0.87,0.79121025,0.7569
10:13:23,30-Sep-21,0.8945,0.874,0.80013025,0.763876
10:13:23,30-Sep-21,0.8945,0.877,0.80013025,0.769129
10:13:23,30-Sep-21,0.8945,0.881,0.80013025,0.776161
10:13:23,30-Sep-21,0.8945,0.884,0.80013025,0.781456
10:13:23,30-Sep-21,0.8945,0.887,0.80013025,0.786769
10:13:23,30-Sep-21,0.8995,0.891,0.80910025,0.793881
10:13:23,30-Sep-21,0.8995,0.894,0.80910025,0.799236
10:13:23,30-Sep-21,0.8995,0.898,0.80910025,0.806404
10:13:23,30-Sep-21,0.8995,0.901,0.80910025,0.811801
10:13:23,30-Sep-21,0.8995,0.904,0.80910025,0.817216
10:13:23,30-Sep-21,0.8995,0.907,0.80910025,0.822649
10:13:23,30-Sep-21,0.909,0.91,0.826281,0.8281
10:13:23,30-Sep-21,0.909,0.913,0.826281,0.833569
10:13:23,30-Sep-21,0.909,0.917,0.826281,0.840889
10:13:23,30-Sep-21,0.909,0.919,0.826281,0.844561
10:13:23,30-Sep-21,0.9285,0.922,0.86211225,0.850084
10:13:23,30-Sep-21,0.9285,0.925,0.86211225,0.855625
10:13:23,30-Sep-21,0.9285,0.928,0.86211225,0.861184
10:13:23,30-Sep-21,0.9285,0.93,0.86211225,0.8649
10:13:23,30-Sep-21,0.9285,0.933,0.86211225,0.870489
10:13:23,30-Sep-21,0.9385,0.935,0.88078225,0.874225
10:13:23,30-Sep-21,0.9385,0.938,0.88078225,0.879844
10:13:23,30-Sep-21,0.9385,0.94,0.88078225,0.8836
10:13:23,30-Sep-21,0.953,0.942,0.908209,0.887364
10:13:23,30-Sep-21,0.953,0.944,0.908209,0.891136
10:13:23,30-Sep-21,0.958,0.946,0.917764,0.894916
10:13:23,30-Sep-21,0.958,0.948,0.917764,0.898704
10:13:23,30-Sep-21,0.958,0.95,0.917764,0.9025
10:13:23,30-Sep-21,0.958,0.951,0.917764,0.904401
10:13:23,30-Sep-21,0.958,0.953,0.917764,0.908209
10:13:23,30-Sep-21,0.958,0.954,0.917764,0.910116
10:13:23,30-Sep-21,0.958,0.956,0.917764,0.913936
10:13:23,30-Sep-21,0.9435,0.957,0.89019225,0.915849
10:13:23,30-Sep-21,0.9435,0.958,0.89019225,0.917764
10:13:23,30-Sep-21,0.9435,0.959,0.89019225,0.919681
10:13:23,30-Sep-21,0.9435,0.96,0.89019225,0.9216
10:13:23,30-Sep-21,0.948,0.961,0.898704,0.923521
10:13:23,30-Sep-21,0.948,0.962,0.898704,0.925444
10:13:23,30-Sep-21,0.948,0.963,0.898704,0.927369
10:13:23,30-Sep-21,0.948,0.963,0.898704,0.927369
10:13:23,30-Sep-21,0.9725,0.964,0.94575625,0.929296
10:13:23,30-Sep-21,0.9775,0.964,0.95550625,0.929296
10:13:23,30-Sep-21,0.9825,0.965,0.96530625,0.931225
10:13:23,30-Sep-21,0.9825,0.965,0.96530625,0.931225
10:13:23,30-Sep-21,0.9825,0.965,0.96530625,0.931225
10:13:23,30-Sep-21,0.9825,0.965,0.96530625,0.931225
10:13:23,30-Sep-21,0.9825,0.965,0.96530625,0.931225
10:13:23,30-Sep-21,0.9825,0.965,0.96530625,0.931225
10:13:23,30-Sep-21,0.9825,0.965,0.96530625,0.931225
10:13:23,30-Sep-21,0.9825,0.965,0.96530625,0.931225
10:13:23,30-Sep-21,0.9675,0.965,0.93605625,0.931225
10:13:23,30-Sep-21,0.9675,0.965,0.93605625,0.931225
10:13:23,30-Sep-21,0.9675,0.965,0.93605625,0.931225
10:13:23,30-Sep-21,0.963,0.965,0.927369,0.931225
10:13:23,30-Sep-21,0.963,0.965,0.927369,0.931225
10:13:23,30-Sep-21,0.963,0.965,0.927369,0.931225
10:13:23,30-Sep-21,0.948,0.964,0.898704,0.929296
10:13:23,30-Sep-21,0.948,0.964,0.898704,0.929296
10:13:24,30-Sep-21,0.948,0.964,0.898704,0.929296
10:13:24,30-Sep-21,0.948,0.964,0.898704,0.929296
10:13:24,30-Sep-21,0.948,0.964,0.898704,0.929296
10:13:24,30-Sep-21,0.948,0.964,0.898704,0.929296
10:13:24,30-Sep-21,0.948,0.964,0.898704,0.929296
10:13:24,30-Sep-21,0.948,0.964,0.898704,0.929296
10:13:24,30-Sep-21,0.948,0.964,0.898704,0.929296
10:13:24,30-Sep-21,0.948,0.964,0.898704,0.929296
10:13:24,30-Sep-21,0.9725,0.964,0.94575625,0.929296
10:13:24,30-Sep-21,0.9725,0.964,0.94575625,0.929296
10:13:24,30-Sep-21,0.9725,0.964,0.94575625,0.929296
10:13:24,30-Sep-21,0.9725,0.964,0.94575625,0.929296
10:13:24,30-Sep-21,0.9725,0.964,0.94575625,0.929296
10:13:24,30-Sep-21,0.9775,0.965,0.95550625,0.931225
10:13:24,30-Sep-21,0.9775,0.965,0.95550625,0.931225
10:13:24,30-Sep-21,0.9725,0.965,0.94575625,0.931225
10:13:24,30-Sep-21,0.9725,0.966,0.94575625,0.933156
10:13:24,30-Sep-21,0.9725,0.966,0.94575625,0.933156
10:13:24,30-Sep-21,0.958,0.967,0.917764,0.935089
10:13:24,30-Sep-21,0.958,0.967,0.917764,0.935089
10:13:24,30-Sep-21,0.958,0.968,0.917764,0.937024
10:13:24,30-Sep-21,0.953,0.968,0.908209,0.937024
10:13:24,30-Sep-21,0.948,0.969,0.898704,0.938961
10:13:24,30-Sep-21,0.948,0.969,0.898704,0.938961
10:13:24,30-Sep-21,0.948,0.97,0.898704,0.9409
10:13:24,30-Sep-21,0.963,0.97,0.927369,0.9409
10:13:24,30-Sep-21,0.963,0.971,0.927369,0.942841
10:13:24,30-Sep-21,0.9725,0.972,0.94575625,0.944784
10:13:24,30-Sep-21,0.9725,0.972,0.94575625,0.944784
10:13:24,30-Sep-21,0.9825,0.973,0.96530625,0.946729
10:13:24,30-Sep-21,0.9825,0.973,0.96530625,0.946729
10:13:24,30-Sep-21,0.992,0.974,0.984064,0.948676
10:13:24,30-Sep-21,0.992,0.975,0.984064,0.950625
10:13:24,30-Sep-21,0.992,0.975,0.984064,0.950625
10:13:24,30-Sep-21,0.992,0.976,0.984064,0.952576
10:13:24,30-Sep-21,0.992,0.976,0.984064,0.952576
10:13:24,30-Sep-21,0.992,0.977,0.984064,0.954529
10:13:24,30-Sep-21,0.992,0.977,0.984064,0.954529
10:13:24,30-Sep-21,0.992,0.978,0.984064,0.956484
10:13:24,30-Sep-21,0.9875,0.978,0.97515625,0.956484
10:13:24,30-Sep-21,0.9875,0.979,0.97515625,0.958441
10:13:24,30-Sep-21,0.9875,0.979,0.97515625,0.958441
10:13:24,30-Sep-21,0.9875,0.979,0.97515625,0.958441
10:13:24,30-Sep-21,0.9725,0.98,0.94575625,0.9604
10:13:24,30-Sep-21,0.9725,0.98,0.94575625,0.9604
10:13:24,30-Sep-21,0.9725,0.98,0.94575625,0.9604
10:13:24,30-Sep-21,0.9725,0.98,0.94575625,0.9604
10:13:24,30-Sep-21,0.963,0.981,0.927369,0.962361
10:13:24,30-Sep-21,0.963,0.981,0.927369,0.962361
10:13:24,30-Sep-21,0.963,0.981,0.927369,0.962361
10:13:24,30-Sep-21,0.9675,0.981,0.93605625,0.962361
10:13:24,30-Sep-21,0.9675,0.981,0.93605625,0.962361
10:13:24,30-Sep-21,0.9675,0.981,0.93605625,0.962361
10:13:24,30-Sep-21,0.9675,0.982,0.93605625,0.964324
10:13:24,30-Sep-21,0.9725,0.982,0.94575625,0.964324
10:13:24,30-Sep-21,0.9725,0.982,0.94575625,0.964324
10:13:24,30-Sep-21,0.992,0.982,0.984064,0.964324
10:13:24,30-Sep-21,0.992,0.982,0.984064,0.964324
10:13:24,30-Sep-21,0.997,0.982,0.994009,0.964324
10:13:24,30-Sep-21,1.002,0.982,1.004004,0.964324
10:13:24,30-Sep-21,1.002,0.982,1.004004,0.964324
10:13:24,30-Sep-21,0.997,0.982,0.994009,0.964324
10:13:24,30-Sep-21,0.997,0.982,0.994009,0.964324
10:13:24,30-Sep-21,0.9875,0.981,0.97515625,0.962361
10:13:24,30-Sep-21,0.9875,0.981,0.97515625,0.962361
10:13:24,30-Sep-21,0.9875,0.981,0.97515625,0.962361
10:13:24,30-Sep-21,0.9825,0.981,0.96530625,0.962361
10:13:24,30-Sep-21,0.9825,0.981,0.96530625,0.962361
10:13:24,30-Sep-21,0.9675,0.981,0.93605625,0.962361
10:13:24,30-Sep-21,0.9675,0.981,0.93605625,0.962361
10:13:24,30-Sep-21,0.9675,0.98,0.93605625,0.9604
10:13:24,30-Sep-21,0.9675,0.98,0.93605625,0.9604
10:13:24,30-Sep-21,0.9675,0.98,0.93605625,0.9604
10:13:24,30-Sep-21,0.9675,0.98,0.93605625,0.9604
10:13:24,30-Sep-21,0.9675,0.979,0.93605625,0.958441
10:13:24,30-Sep-21,0.963,0.979,0.927369,0.958441
10:13:24,30-Sep-21,0.9675,0.979,0.93605625,0.958441
10:13:24,30-Sep-21,0.9675,0.979,0.93605625,0.958441
10:13:24,30-Sep-21,0.9775,0.978,0.95550625,0.956484
10:13:24,30-Sep-21,0.992,0.978,0.984064,0.956484
10:13:24,30-Sep-21,0.992,0.978,0.984064,0.956484
10:13:24,30-Sep-21,0.997,0.977,0.994009,0.954529
10:13:24,30-Sep-21,0.997,0.977,0.994009,0.954529
10:13:24,30-Sep-21,0.992,0.977,0.984064,0.954529
10:13:24,30-Sep-21,0.992,0.976,0.984064,0.952576
10:13:24,30-Sep-21,0.9875,0.976,0.97515625,0.952576
10:13:24,30-Sep-21,0.9875,0.976,0.97515625,0.952576
10:13:24,30-Sep-21,0.9725,0.975,0.94575625,0.950625
10:13:24,30-Sep-21,0.9725,0.975,0.94575625,0.950625
10:13:24,30-Sep-21,0.9725,0.975,0.94575625,0.950625
10:13:24,30-Sep-21,0.9725,0.974,0.94575625,0.948676
10:13:24,30-Sep-21,0.9725,0.974,0.94575625,0.948676
10:13:24,30-Sep-21,0.9675,0.973,0.93605625,0.946729
10:13:24,30-Sep-21,0.9675,0.973,0.93605625,0.946729
10:13:24,30-Sep-21,0.963,0.972,0.927369,0.944784
10:13:24,30-Sep-21,0.963,0.972,0.927369,0.944784
10:13:24,30-Sep-21,0.953,0.972,0.908209,0.944784
10:13:24,30-Sep-21,0.953,0.971,0.908209,0.942841
10:13:24,30-Sep-21,0.963,0.971,0.927369,0.942841
10:13:24,30-Sep-21,0.963,0.97,0.927369,0.9409
10:13:24,30-Sep-21,0.963,0.97,0.927369,0.9409
10:13:24,30-Sep-21,0.9725,0.97,0.94575625,0.9409
10:13:24,30-Sep-21,0.9825,0.969,0.96530625,0.938961
10:13:24,30-Sep-21,0.9825,0.969,0.96530625,0.938961
10:13:24,30-Sep-21,0.9825,0.968,0.96530625,0.937024
10:13:24,30-Sep-21,0.9775,0.968,0.95550625,0.937024
10:13:24,30-Sep-21,0.9775,0.968,0.95550625,0.937024
10:13:24,30-Sep-21,0.9725,0.967,0.94575625,0.935089
10:13:24,30-Sep-21,0.9725,0.967,0.94575625,0.935089
10:13:24,30-Sep-21,0.9725,0.967,0.94575625,0.935089
10:13:24,30-Sep-21,0.9725,0.966,0.94575625,0.933156
10:13:24,30-Sep-21,0.9675,0.966,0.93605625,0.933156
10:13:24,30-Sep-21,0.9675,0.966,0.93605625,0.933156
10:13:24,30-Sep-21,0.9675,0.965,0.93605625,0.931225
10:13:24,30-Sep-21,0.9675,0.965,0.93605625,0.931225
10:13:25,30-Sep-21,0.953,0.965,0.908209,0.931225
10:13:25,30-Sep-21,0.948,0.964,0.898704,0.929296
10:13:25,30-Sep-21,0.948,0.964,0.898704,0.929296
10:13:25,30-Sep-21,0.9435,0.964,0.89019225,0.929296
10:13:25,30-Sep-21,0.9435,0.963,0.89019225,0.927369
10:13:25,30-Sep-21,0.9435,0.963,0.89019225,0.927369
10:13:25,30-Sep-21,0.9435,0.963,0.89019225,0.927369
10:13:25,30-Sep-21,0.9675,0.962,0.93605625,0.925444
10:13:25,30-Sep-21,0.9725,0.962,0.94575625,0.925444
10:13:25,30-Sep-21,0.9725,0.962,0.94575625,0.925444
10:13:25,30-Sep-21,0.9775,0.962,0.95550625,0.925444
10:13:25,30-Sep-21,0.9775,0.961,0.95550625,0.923521
10:13:25,30-Sep-21,0.9775,0.961,0.95550625,0.923521
10:13:25,30-Sep-21,0.9725,0.961,0.94575625,0.923521
10:13:25,30-Sep-21,0.9725,0.96,0.94575625,0.9216
10:13:25,30-Sep-21,0.9725,0.96,0.94575625,0.9216
10:13:25,30-Sep-21,0.963,0.96,0.927369,0.9216
10:13:25,30-Sep-21,0.958,0.959,0.917764,0.919681
10:13:25,30-Sep-21,0.958,0.959,0.917764,0.919681
10:13:25,30-Sep-21,0.9435,0.958,0.89019225,0.917764
10:13:25,30-Sep-21,0.9435,0.958,0.89019225,0.917764
10:13:25,30-Sep-21,0.9435,0.958,0.89019225,0.917764
10:13:25,30-Sep-21,0.9435,0.957,0.89019225,0.915849
10:13:25,30-Sep-21,0.9435,0.957,0.89019225,0.915849
10:13:25,30-Sep-21,0.9435,0.956,0.89019225,0.913936
10:13:25,30-Sep-21,0.948,0.956,0.898704,0.913936
10:13:25,30-Sep-21,0.948,0.955,0.898704,0.912025
10:13:25,30-Sep-21,0.948,0.955,0.898704,0.912025
10:13:25,30-Sep-21,0.948,0.954,0.898704,0.910116
10:13:25,30-Sep-21,0.948,0.954,0.898704,0.910116
10:13:25,30-Sep-21,0.9675,0.953,0.93605625,0.908209
10:13:25,30-Sep-21,0.9675,0.952,0.93605625,0.906304
10:13:25,30-Sep-21,0.9675,0.952,0.93605625,0.906304
10:13:25,30-Sep-21,0.9675,0.951,0.93605625,0.904401
10:13:25,30-Sep-21,0.9675,0.95,0.93605625,0.9025
10:13:25,30-Sep-21,0.9675,0.95,0.93605625,0.9025
10:13:25,30-Sep-21,0.963,0.949,0.927369,0.900601
10:13:25,30-Sep-21,0.963,0.948,0.927369,0.898704
10:13:25,30-Sep-21,0.963,0.947,0.927369,0.896809
10:13:25,30-Sep-21,0.963,0.947,0.927369,0.896809
10:13:25,30-Sep-21,0.963,0.946,0.927369,0.894916
10:13:25,30-Sep-21,0.953,0.945,0.908209,0.893025
10:13:25,30-Sep-21,0.953,0.944,0.908209,0.891136
10:13:25,30-Sep-21,0.953,0.943,0.908209,0.889249
10:13:25,30-Sep-21,0.9385,0.943,0.88078225,0.889249
10:13:25,30-Sep-21,0.9385,0.942,0.88078225,0.887364
10:13:25,30-Sep-21,0.9285,0.941,0.86211225,0.885481
10:13:25,30-Sep-21,0.9285,0.941,0.86211225,0.885481
10:13:25,30-Sep-21,0.9285,0.94,0.86211225,0.8836
10:13:25,30-Sep-21,0.9285,0.939,0.86211225,0.881721
10:13:25,30-Sep-21,0.919,0.939,0.844561,0.881721
10:13:25,30-Sep-21,0.919,0.938,0.844561,0.879844
10:13:25,30-Sep-21,0.919,0.938,0.844561,0.879844
10:13:25,30-Sep-21,0.919,0.937,0.844561,0.877969
10:13:25,30-Sep-21,0.919,0.937,0.844561,0.877969
10:13:25,30-Sep-21,0.919,0.937,0.844561,0.877969
10:13:25,30-Sep-21,0.9285,0.937,0.86211225,0.877969
10:13:25,30-Sep-21,0.9285,0.936,0.86211225,0.876096
10:13:25,30-Sep-21,0.9285,0.936,0.86211225,0.876096
10:13:25,30-Sep-21,0.9335,0.936,0.87142225,0.876096
10:13:25,30-Sep-21,0.9335,0.936,0.87142225,0.876096
10:13:25,30-Sep-21,0.9335,0.936,0.87142225,0.876096
10:13:25,30-Sep-21,0.9335,0.936,0.87142225,0.876096
10:13:25,30-Sep-21,0.9335,0.936,0.87142225,0.876096
10:13:25,30-Sep-21,0.948,0.936,0.898704,0.876096
10:13:25,30-Sep-21,0.948,0.936,0.898704,0.876096
10:13:25,30-Sep-21,0.948,0.937,0.898704,0.877969
10:13:25,30-Sep-21,0.948,0.937,0.898704,0.877969
10:13:25,30-Sep-21,0.948,0.937,0.898704,0.877969
10:13:25,30-Sep-21,0.948,0.937,0.898704,0.877969
10:13:25,30-Sep-21,0.948,0.937,0.898704,0.877969
10:13:25,30-Sep-21,0.9435,0.938,0.89019225,0.879844
10:13:25,30-Sep-21,0.9435,0.938,0.89019225,0.879844
10:13:25,30-Sep-21,0.9435,0.938,0.89019225,0.879844
10:13:25,30-Sep-21,0.9435,0.939,0.89019225,0.881721
10:13:25,30-Sep-21,0.9435,0.939,0.89019225,0.881721
10:13:25,30-Sep-21,0.9435,0.939,0.89019225,0.881721
10:13:25,30-Sep-21,0.9335,0.94,0.87142225,0.8836
10:13:25,30-Sep-21,0.9285,0.94,0.86211225,0.8836
10:13:25,30-Sep-21,0.9285,0.94,0.86211225,0.8836
10:13:25,30-Sep-21,0.924,0.941,0.853776,0.885481
10:13:25,30-Sep-21,0.9285,0.941,0.86211225,0.885481
10:13:25,30-Sep-21,0.9285,0.941,0.86211225,0.885481
10:13:25,30-Sep-21,0.9435,0.942,0.89019225,0.887364
10:13:25,30-Sep-21,0.953,0.942,0.908209,0.887364
10:13:25,30-Sep-21,0.953,0.942,0.908209,0.887364
10:13:25,30-Sep-21,0.953,0.942,0.908209,0.887364
10:13:25,30-Sep-21,0.958,0.943,0.917764,0.889249
10:13:25,30-Sep-21,0.963,0.943,0.927369,0.889249
10:13:25,30-Sep-21,0.963,0.943,0.927369,0.889249
10:13:25,30-Sep-21,0.963,0.943,0.927369,0.889249
10:13:25,30-Sep-21,0.953,0.944,0.908209,0.891136
10:13:25,30-Sep-21,0.953,0.944,0.908209,0.891136
10:13:25,30-Sep-21,0.953,0.944,0.908209,0.891136
10:13:25,30-Sep-21,0.948,0.944,0.898704,0.891136
10:13:25,30-Sep-21,0.9335,0.944,0.87142225,0.891136
10:13:25,30-Sep-21,0.9335,0.944,0.87142225,0.891136
10:13:25,30-Sep-21,0.9335,0.945,0.87142225,0.893025
10:13:25,30-Sep-21,0.9335,0.945,0.87142225,0.893025
10:13:25,30-Sep-21,0.9285,0.945,0.86211225,0.893025
10:13:25,30-Sep-21,0.9285,0.945,0.86211225,0.893025
10:13:25,30-Sep-21,0.9285,0.945,0.86211225,0.893025
10:13:25,30-Sep-21,0.9285,0.945,0.86211225,0.893025
10:13:25,30-Sep-21,0.9285,0.945,0.86211225,0.893025
10:13:25,30-Sep-21,0.9285,0.946,0.86211225,0.894916
10:13:25,30-Sep-21,0.9335,0.946,0.87142225,0.894916
10:13:25,30-Sep-21,0.9335,0.946,0.87142225,0.894916
10:13:25,30-Sep-21,0.9335,0.946,0.87142225,0.894916
10:13:25,30-Sep-21,0.9385,0.946,0.88078225,0.894916
10:13:25,30-Sep-21,0.9385,0.946,0.88078225,0.894916
10:13:25,30-Sep-21,0.9385,0.946,0.88078225,0.894916
10:13:25,30-Sep-21,0.958,0.945,0.917764,0.893025
10:13:25,30-Sep-21,0.958,0.945,0.917764,0.893025
10:13:25,30-Sep-21,0.958,0.945,0.917764,0.893025
10:13:25,30-Sep-21,0.958,0.945,0.917764,0.893025
10:13:25,30-Sep-21,0.958,0.944,0.917764,0.891136
10:13:25,30-Sep-21,0.958,0.944,0.917764,0.891136
10:13:25,30-Sep-21,0.953,0.944,0.908209,0.891136
10:13:25,30-Sep-21,0.953,0.943,0.908209,0.889249
10:13:25,30-Sep-21,0.953,0.942,0.908209,0.887364
10:13:25,30-Sep-21,0.953,0.942,0.908209,0.887364
10:13:25,30-Sep-21,0.953,0.941,0.908209,0.885481
10:13:25,30-Sep-21,0.948,0.94,0.898704,0.8836
10:13:25,30-Sep-21,0.948,0.939,0.898704,0.881721
10:13:25,30-Sep-21,0.948,0.938,0.898704,0.879844
10:13:25,30-Sep-21,0.9385,0.937,0.88078225,0.877969
10:13:25,30-Sep-21,0.9385,0.936,0.88078225,0.876096
10:13:25,30-Sep-21,0.9385,0.935,0.88078225,0.874225
10:13:25,30-Sep-21,0.9285,0.934,0.86211225,0.872356
10:13:25,30-Sep-21,0.9285,0.932,0.86211225,0.868624
10:13:25,30-Sep-21,0.9285,0.931,0.86211225,0.866761
10:13:25,30-Sep-21,0.914,0.929,0.835396,0.863041
10:13:25,30-Sep-21,0.914,0.928,0.835396,0.861184
10:13:26,30-Sep-21,0.914,0.926,0.835396,0.857476
10:13:26,30-Sep-21,0.904,0.924,0.817216,0.853776
10:13:26,30-Sep-21,0.904,0.923,0.817216,0.851929
10:13:26,30-Sep-21,0.904,0.921,0.817216,0.848241
10:13:26,30-Sep-21,0.904,0.919,0.817216,0.844561
10:13:26,30-Sep-21,0.904,0.917,0.817216,0.840889
10:13:26,30-Sep-21,0.8995,0.914,0.80910025,0.835396
10:13:26,30-Sep-21,0.8995,0.912,0.80910025,0.831744
10:13:26,30-Sep-21,0.8995,0.91,0.80910025,0.8281
10:13:26,30-Sep-21,0.909,0.908,0.826281,0.824464
10:13:26,30-Sep-21,0.909,0.905,0.826281,0.819025
10:13:26,30-Sep-21,0.909,0.903,0.826281,0.815409
10:13:26,30-Sep-21,0.909,0.9,0.826281,0.81
10:13:26,30-Sep-21,0.909,0.898,0.826281,0.806404
10:13:26,30-Sep-21,0.909,0.895,0.826281,0.801025
10:13:26,30-Sep-21,0.909,0.892,0.826281,0.795664
10:13:26,30-Sep-21,0.909,0.89,0.826281,0.7921
10:13:26,30-Sep-21,0.909,0.887,0.826281,0.786769
10:13:26,30-Sep-21,0.909,0.884,0.826281,0.781456
10:13:26,30-Sep-21,0.909,0.881,0.826281,0.776161
10:13:26,30-Sep-21,0.8995,0.878,0.80910025,0.770884
10:13:26,30-Sep-21,0.8995,0.875,0.80910025,0.765625
10:13:26,30-Sep-21,0.8995,0.873,0.80910025,0.762129
10:13:26,30-Sep-21,0.88,0.87,0.7744,0.7569
10:13:26,30-Sep-21,0.88,0.867,0.7744,0.751689
10:13:26,30-Sep-21,0.88,0.864,0.7744,0.746496
10:13:26,30-Sep-21,0.87,0.861,0.7569,0.741321
10:13:26,30-Sep-21,0.87,0.858,0.7569,0.736164
10:13:26,30-Sep-21,0.8505,0.856,0.72335025,0.732736
10:13:26,30-Sep-21,0.8505,0.853,0.72335025,0.727609
10:13:26,30-Sep-21,0.8505,0.851,0.72335025,0.724201
10:13:26,30-Sep-21,0.8455,0.849,0.71487025,0.720801
10:13:26,30-Sep-21,0.8455,0.846,0.71487025,0.715716
10:13:26,30-Sep-21,0.8455,0.844,0.71487025,0.712336
10:13:26,30-Sep-21,0.831,0.843,0.690561,0.710649
10:13:26,30-Sep-21,0.821,0.841,0.674041,0.707281
10:13:26,30-Sep-21,0.821,0.839,0.674041,0.703921
10:13:26,30-Sep-21,0.816,0.838,0.665856,0.702244
10:13:26,30-Sep-21,0.816,0.837,0.665856,0.700569
10:13:26,30-Sep-21,0.826,0.836,0.682276,0.698896
10:13:26,30-Sep-21,0.826,0.836,0.682276,0.698896
10:13:26,30-Sep-21,0.826,0.835,0.682276,0.697225
10:13:26,30-Sep-21,0.826,0.835,0.682276,0.697225
10:13:26,30-Sep-21,0.826,0.835,0.682276,0.697225
10:13:26,30-Sep-21,0.821,0.835,0.674041,0.697225
10:13:26,30-Sep-21,0.821,0.836,0.674041,0.698896
10:13:26,30-Sep-21,0.821,0.837,0.674041,0.700569
10:13:26,30-Sep-21,0.821,0.838,0.674041,0.702244
10:13:26,30-Sep-21,0.821,0.839,0.674041,0.703921
10:13:26,30-Sep-21,0.816,0.841,0.665856,0.707281
10:13:26,30-Sep-21,0.816,0.842,0.665856,0.708964
10:13:26,30-Sep-21,0.826,0.844,0.682276,0.712336
10:13:26,30-Sep-21,0.836,0.847,0.698896,0.717409
10:13:26,30-Sep-21,0.836,0.849,0.698896,0.720801
10:13:26,30-Sep-21,0.836,0.852,0.698896,0.725904
10:13:26,30-Sep-21,0.8455,0.854,0.71487025,0.729316
10:13:26,30-Sep-21,0.8455,0.857,0.71487025,0.734449
10:13:26,30-Sep-21,0.8505,0.86,0.72335025,0.7396
10:13:26,30-Sep-21,0.86,0.864,0.7396,0.746496
10:13:26,30-Sep-21,0.86,0.867,0.7396,0.751689
10:13:26,30-Sep-21,0.88,0.871,0.7744,0.758641
10:13:26,30-Sep-21,0.88,0.874,0.7744,0.763876
10:13:26,30-Sep-21,0.88,0.878,0.7744,0.770884
10:13:26,30-Sep-21,0.8995,0.882,0.80910025,0.777924
10:13:26,30-Sep-21,0.8995,0.885,0.80910025,0.783225
10:13:26,30-Sep-21,0.8995,0.889,0.80910025,0.790321
10:13:26,30-Sep-21,0.924,0.893,0.853776,0.797449
10:13:26,30-Sep-21,0.9335,0.897,0.87142225,0.804609
10:13:26,30-Sep-21,0.9335,0.901,0.87142225,0.811801
10:13:26,30-Sep-21,0.9385,0.905,0.88078225,0.819025
10:13:26,30-Sep-21,0.9385,0.909,0.88078225,0.826281
10:13:26,30-Sep-21,0.9385,0.913,0.88078225,0.833569
10:13:26,30-Sep-21,0.9435,0.917,0.89019225,0.840889
10:13:26,30-Sep-21,0.9435,0.92,0.89019225,0.8464
10:13:26,30-Sep-21,0.9435,0.924,0.89019225,0.853776
10:13:26,30-Sep-21,0.9435,0.928,0.89019225,0.861184
10:13:26,30-Sep-21,0.9385,0.932,0.88078225,0.868624
10:13:26,30-Sep-21,0.9385,0.936,0.88078225,0.876096
10:13:26,30-Sep-21,0.9385,0.94,0.88078225,0.8836
10:13:26,30-Sep-21,0.9335,0.943,0.87142225,0.889249
10:13:26,30-Sep-21,0.9335,0.947,0.87142225,0.896809
10:13:26,30-Sep-21,0.9335,0.951,0.87142225,0.904401
10:13:26,30-Sep-21,0.9435,0.955,0.89019225,0.912025
10:13:26,30-Sep-21,0.9435,0.958,0.89019225,0.917764
10:13:26,30-Sep-21,0.958,0.962,0.917764,0.925444
10:13:26,30-Sep-21,0.9675,0.966,0.93605625,0.933156
10:13:26,30-Sep-21,0.9675,0.97,0.93605625,0.9409
10:13:26,30-Sep-21,0.997,0.974,0.994009,0.948676
10:13:26,30-Sep-21,0.997,0.978,0.994009,0.956484
10:13:26,30-Sep-21,1.002,0.982,1.004004,0.964324
10:13:26,30-Sep-21,1.0115,0.986,1.02313225,0.972196
10:13:26,30-Sep-21,1.007,0.99,1.014049,0.9801
10:13:26,30-Sep-21,1.007,0.994,1.014049,0.988036
10:13:26,30-Sep-21,1.007,0.998,1.014049,0.996004
10:13:26,30-Sep-21,0.997,1.003,0.994009,1.006009
10:13:26,30-Sep-21,0.997,1.007,0.994009,1.014049
10:13:26,30-Sep-21,0.997,1.012,0.994009,1.024144
10:13:26,30-Sep-21,0.992,1.016,0.984064,1.032256
10:13:26,30-Sep-21,0.992,1.021,0.984064,1.042441
10:13:26,30-Sep-21,0.992,1.026,0.984064,1.052676
10:13:26,30-Sep-21,0.992,1.031,0.984064,1.062961
10:13:26,30-Sep-21,0.997,1.036,0.994009,1.073296
10:13:26,30-Sep-21,0.997,1.041,0.994009,1.083681
10:13:26,30-Sep-21,0.997,1.046,0.994009,1.094116
10:13:26,30-Sep-21,1.0165,1.051,1.03327225,1.104601
10:13:26,30-Sep-21,1.0165,1.057,1.03327225,1.117249
10:13:26,30-Sep-21,1.041,1.062,1.083681,1.127844
10:13:26,30-Sep-21,1.041,1.067,1.083681,1.138489
10:13:26,30-Sep-21,1.041,1.073,1.083681,1.151329
10:13:26,30-Sep-21,1.041,1.078,1.083681,1.162084
10:13:26,30-Sep-21,1.0755,1.084,1.15670025,1.175056
10:13:26,30-Sep-21,1.0755,1.089,1.15670025,1.185921
10:13:26,30-Sep-21,1.1045,1.095,1.21992025,1.199025
10:13:26,30-Sep-21,1.129,1.1,1.274641,1.21
10:13:26,30-Sep-21,1.1435,1.106,1.30759225,1.223236
10:13:26,30-Sep-21,1.1435,1.111,1.30759225,1.234321
10:13:26,30-Sep-21,1.163,1.116,1.352569,1.245456
10:13:26,30-Sep-21,1.1585,1.122,1.34212225,1.258884
10:13:26,30-Sep-21,1.1585,1.127,1.34212225,1.270129
10:13:27,30-Sep-21,1.1585,1.132,1.34212225,1.281424
10:13:27,30-Sep-21,1.168,1.137,1.364224,1.292769
10:13:27,30-Sep-21,1.173,1.142,1.375929,1.304164
10:13:27,30-Sep-21,1.173,1.146,1.375929,1.313316
10:13:27,30-Sep-21,1.178,1.151,1.387684,1.324801
10:13:27,30-Sep-21,1.178,1.155,1.387684,1.334025
10:13:27,30-Sep-21,1.178,1.16,1.387684,1.3456
10:13:27,30-Sep-21,1.183,1.164,1.399489,1.354896
10:13:27,30-Sep-21,1.183,1.168,1.399489,1.364224
10:13:27,30-Sep-21,1.212,1.172,1.468944,1.373584
10:13:27,30-Sep-21,1.212,1.176,1.468944,1.382976
10:13:27,30-Sep-21,1.212,1.18,1.468944,1.3924
10:13:27,30-Sep-21,1.207,1.183,1.456849,1.399489
10:13:27,30-Sep-21,1.207,1.187,1.456849,1.408969
10:13:27,30-Sep-21,1.207,1.19,1.456849,1.4161
10:13:27,30-Sep-21,1.178,1.194,1.387684,1.425636
10:13:27,30-Sep-21,1.178,1.197,1.387684,1.432809
10:13:27,30-Sep-21,1.178,1.2,1.387684,1.44
10:13:27,30-Sep-21,1.173,1.204,1.375929,1.449616
10:13:27,30-Sep-21,1.1585,1.207,1.34212225,1.456849
10:13:27,30-Sep-21,1.1585,1.21,1.34212225,1.4641
10:13:27,30-Sep-21,1.1585,1.213,1.34212225,1.471369
10:13:27,30-Sep-21,1.1585,1.216,1.34212225,1.478656
10:13:27,30-Sep-21,1.1585,1.22,1.34212225,1.4884
10:13:27,30-Sep-21,1.1975,1.223,1.43400625,1.495729
10:13:27,30-Sep-21,1.1975,1.226,1.43400625,1.503076
10:13:27,30-Sep-21,1.1975,1.229,1.43400625,1.510441
10:13:27,30-Sep-21,1.222,1.232,1.493284,1.517824
10:13:27,30-Sep-21,1.251,1.235,1.565001,1.525225
10:13:27,30-Sep-21,1.251,1.238,1.565001,1.532644
10:13:27,30-Sep-21,1.261,1.241,1.590121,1.540081
10:13:27,30-Sep-21,1.261,1.245,1.590121,1.550025
10:13:27,30-Sep-21,1.261,1.248,1.590121,1.557504
10:13:27,30-Sep-21,1.261,1.251,1.590121,1.565001
10:13:27,30-Sep-21,1.261,1.254,1.590121,1.572516
10:13:27,30-Sep-21,1.271,1.257,1.615441,1.580049
10:13:27,30-Sep-21,1.261,1.26,1.590121,1.5876
10:13:27,30-Sep-21,1.261,1.262,1.590121,1.592644
10:13:27,30-Sep-21,1.266,1.265,1.602756,1.600225
10:13:27,30-Sep-21,1.266,1.268,1.602756,1.607824
10:13:27,30-Sep-21,1.266,1.271,1.602756,1.615441
10:13:27,30-Sep-21,1.266,1.273,1.602756,1.620529
10:13:27,30-Sep-21,1.266,1.276,1.602756,1.628176
10:13:27,30-Sep-21,1.266,1.279,1.602756,1.635841
10:13:27,30-Sep-21,1.271,1.281,1.615441,1.640961
10:13:27,30-Sep-21,1.3,1.283,1.69,1.646089
10:13:27,30-Sep-21,1.3,1.286,1.69,1.653796
10:13:27,30-Sep-21,1.31,1.288,1.7161,1.658944
10:13:27,30-Sep-21,1.3245,1.29,1.75430025,1.6641
10:13:27,30-Sep-21,1.3245,1.292,1.75430025,1.669264
10:13:27,30-Sep-21,1.3245,1.294,1.75430025,1.674436
10:13:27,30-Sep-21,1.3245,1.296,1.75430025,1.679616
10:13:27,30-Sep-21,1.315,1.297,1.729225,1.682209
10:13:27,30-Sep-21,1.31,1.299,1.7161,1.687401
10:13:27,30-Sep-21,1.31,1.301,1.7161,1.692601
10:13:27,30-Sep-21,1.305,1.302,1.703025,1.695204
10:13:27,30-Sep-21,1.2905,1.303,1.66539025,1.697809
10:13:27,30-Sep-21,1.2905,1.305,1.66539025,1.703025
10:13:27,30-Sep-21,1.2905,1.306,1.66539025,1.705636
10:13:27,30-Sep-21,1.2855,1.307,1.65251025,1.708249
10:13:27,30-Sep-21,1.2855,1.308,1.65251025,1.710864
10:13:27,30-Sep-21,1.2855,1.309,1.65251025,1.713481
10:13:27,30-Sep-21,1.2905,1.31,1.66539025,1.7161
10:13:27,30-Sep-21,1.3195,1.311,1.74108025,1.718721
10:13:27,30-Sep-21,1.3195,1.311,1.74108025,1.718721
10:13:27,30-Sep-21,1.3195,1.312,1.74108025,1.721344
10:13:27,30-Sep-21,1.3245,1.312,1.75430025,1.721344
10:13:27,30-Sep-21,1.3295,1.313,1.76757025,1.723969
10:13:27,30-Sep-21,1.3295,1.313,1.76757025,1.723969
10:13:27,30-Sep-21,1.3295,1.314,1.76757025,1.726596
10:13:27,30-Sep-21,1.315,1.314,1.729225,1.726596
10:13:27,30-Sep-21,1.315,1.314,1.729225,1.726596
10:13:27,30-Sep-21,1.315,1.314,1.729225,1.726596
10:13:27,30-Sep-21,1.305,1.314,1.703025,1.726596
10:13:27,30-Sep-21,1.3,1.314,1.69,1.726596
10:13:27,30-Sep-21,1.3,1.314,1.69,1.726596
10:13:27,30-Sep-21,1.2855,1.314,1.65251025,1.726596
10:13:27,30-Sep-21,1.2855,1.314,1.65251025,1.726596
10:13:27,30-Sep-21,1.2855,1.313,1.65251025,1.723969
10:13:27,30-Sep-21,1.2855,1.313,1.65251025,1.723969
10:13:27,30-Sep-21,1.2855,1.312,1.65251025,1.721344
10:13:27,30-Sep-21,1.2855,1.312,1.65251025,1.721344
10:13:27,30-Sep-21,1.2855,1.311,1.65251025,1.718721
10:13:27,30-Sep-21,1.295,1.31,1.677025,1.7161
10:13:27,30-Sep-21,1.3195,1.309,1.74108025,1.713481
10:13:27,30-Sep-21,1.3195,1.308,1.74108025,1.710864
10:13:27,30-Sep-21,1.3195,1.307,1.74108025,1.708249
10:13:27,30-Sep-21,1.3195,1.306,1.74108025,1.705636
10:13:27,30-Sep-21,1.315,1.304,1.729225,1.700416
10:13:27,30-Sep-21,1.315,1.302,1.729225,1.695204
10:13:27,30-Sep-21,1.315,1.3,1.729225,1.69
10:13:27,30-Sep-21,1.315,1.298,1.729225,1.684804
10:13:27,30-Sep-21,1.315,1.296,1.729225,1.679616
10:13:27,30-Sep-21,1.305,1.293,1.703025,1.671849
10:13:27,30-Sep-21,1.305,1.291,1.703025,1.666681
10:13:27,30-Sep-21,1.2905,1.288,1.66539025,1.658944
10:13:27,30-Sep-21,1.2905,1.285,1.66539025,1.651225
10:13:27,30-Sep-21,1.2905,1.281,1.66539025,1.640961
10:13:27,30-Sep-21,1.266,1.278,1.602756,1.633284
10:13:27,30-Sep-21,1.266,1.274,1.602756,1.623076
10:13:27,30-Sep-21,1.266,1.27,1.602756,1.6129
10:13:27,30-Sep-21,1.2465,1.266,1.55376225,1.602756
10:13:27,30-Sep-21,1.2465,1.261,1.55376225,1.590121
10:13:27,30-Sep-21,1.2465,1.257,1.55376225,1.580049
10:13:28,30-Sep-21,1.2465,1.252,1.55376225,1.567504
10:13:28,30-Sep-21,1.227,1.247,1.505529,1.555009
10:13:28,30-Sep-21,1.227,1.241,1.505529,1.540081
10:13:28,30-Sep-21,1.227,1.236,1.505529,1.527696
10:13:28,30-Sep-21,1.227,1.23,1.505529,1.5129
10:13:28,30-Sep-21,1.227,1.224,1.505529,1.498176
10:13:28,30-Sep-21,1.222,1.217,1.493284,1.481089
10:13:28,30-Sep-21,1.222,1.211,1.493284,1.466521
10:13:28,30-Sep-21,1.227,1.204,1.505529,1.449616
10:13:28,30-Sep-21,1.227,1.197,1.505529,1.432809
10:13:28,30-Sep-21,1.217,1.19,1.481089,1.4161
10:13:28,30-Sep-21,1.217,1.183,1.481089,1.399489
10:13:28,30-Sep-21,1.222,1.176,1.493284,1.382976
10:13:28,30-Sep-21,1.222,1.169,1.493284,1.366561
10:13:28,30-Sep-21,1.222,1.161,1.493284,1.347921
10:13:28,30-Sep-21,1.207,1.153,1.456849,1.329409
10:13:28,30-Sep-21,1.207,1.146,1.456849,1.313316
10:13:28,30-Sep-21,1.1975,1.138,1.43400625,1.295044
10:13:28,30-Sep-21,1.1535,1.13,1.33056225,1.2769
10:13:28,30-Sep-21,1.1095,1.122,1.23099025,1.258884
10:13:28,30-Sep-21,1.1095,1.115,1.23099025,1.243225
10:13:28,30-Sep-21,1.0705,1.107,1.14597025,1.225449
10:13:28,30-Sep-21,1.0705,1.1,1.14597025,1.21
10:13:28,30-Sep-21,1.0705,1.092,1.14597025,1.192464
10:13:28,30-Sep-21,1.0265,1.085,1.05370225,1.177225
10:13:28,30-Sep-21,1.0265,1.078,1.05370225,1.162084
10:13:28,30-Sep-21,1.0265,1.071,1.05370225,1.147041
10:13:28,30-Sep-21,1.0165,1.064,1.03327225,1.132096
10:13:28,30-Sep-21,1.0265,1.057,1.05370225,1.117249
10:13:28,30-Sep-21,1.0265,1.051,1.05370225,1.104601
10:13:28,30-Sep-21,1.0265,1.045,1.05370225,1.092025
10:13:28,30-Sep-21,1.0265,1.039,1.05370225,1.079521
10:13:28,30-Sep-21,1.0315,1.034,1.06399225,1.069156
10:13:28,30-Sep-21,1.0315,1.028,1.06399225,1.056784
10:13:28,30-Sep-21,1.0315,1.024,1.06399225,1.048576
10:13:28,30-Sep-21,1.0265,1.019,1.05370225,1.038361
10:13:28,30-Sep-21,1.007,1.015,1.014049,1.030225
10:13:28,30-Sep-21,1.007,1.011,1.014049,1.022121
10:13:28,30-Sep-21,1.002,1.007,1.004004,1.014049
10:13:28,30-Sep-21,1.002,1.004,1.004004,1.008016
10:13:28,30-Sep-21,1.002,1.001,1.004004,1.002001
10:13:28,30-Sep-21,0.9875,0.999,0.97515625,0.998001
10:13:28,30-Sep-21,0.9825,0.996,0.96530625,0.992016
10:13:28,30-Sep-21,0.9825,0.995,0.96530625,0.990025
10:13:28,30-Sep-21,0.9825,0.993,0.96530625,0.986049
10:13:28,30-Sep-21,0.9825,0.992,0.96530625,0.984064
10:13:28,30-Sep-21,0.9825,0.991,0.96530625,0.982081
10:13:28,30-Sep-21,0.9825,0.991,0.96530625,0.982081
10:13:28,30-Sep-21,0.9875,0.99,0.97515625,0.9801
10:13:28,30-Sep-21,0.9875,0.99,0.97515625,0.9801
10:13:28,30-Sep-21,0.9875,0.991,0.97515625,0.982081
10:13:28,30-Sep-21,1.007,0.991,1.014049,0.982081
10:13:28,30-Sep-21,1.007,0.992,1.014049,0.984064
10:13:28,30-Sep-21,1.007,0.993,1.014049,0.986049
10:13:28,30-Sep-21,1.007,0.995,1.014049,0.990025
10:13:28,30-Sep-21,1.007,0.996,1.014049,0.992016
10:13:28,30-Sep-21,1.007,0.998,1.014049,0.996004
10:13:28,30-Sep-21,1.007,1,1.014049,1
10:13:28,30-Sep-21,1.007,1.002,1.014049,1.004004
10:13:28,30-Sep-21,1.007,1.004,1.014049,1.008016
10:13:28,30-Sep-21,1.007,1.006,1.014049,1.012036
10:13:28,30-Sep-21,1.007,1.009,1.014049,1.018081
10:13:28,30-Sep-21,1.007,1.011,1.014049,1.022121
10:13:28,30-Sep-21,1.007,1.014,1.014049,1.028196
10:13:28,30-Sep-21,1.007,1.017,1.014049,1.034289
10:13:28,30-Sep-21,1.007,1.019,1.014049,1.038361
10:13:28,30-Sep-21,0.992,1.022,0.984064,1.044484
10:13:28,30-Sep-21,0.992,1.025,0.984064,1.050625
10:13:28,30-Sep-21,0.992,1.027,0.984064,1.054729
10:13:28,30-Sep-21,0.997,1.03,0.994009,1.0609
10:13:28,30-Sep-21,0.997,1.032,0.994009,1.065024
10:13:28,30-Sep-21,1.0115,1.035,1.02313225,1.071225
10:13:28,30-Sep-21,1.0115,1.037,1.02313225,1.075369
10:13:28,30-Sep-21,1.0315,1.039,1.06399225,1.079521
10:13:28,30-Sep-21,1.0315,1.041,1.06399225,1.083681
10:13:28,30-Sep-21,1.0315,1.043,1.06399225,1.087849
10:13:28,30-Sep-21,1.046,1.045,1.094116,1.092025
10:13:28,30-Sep-21,1.046,1.046,1.094116,1.094116
10:13:28,30-Sep-21,1.08,1.047,1.1664,1.096209
10:13:28,30-Sep-21,1.08,1.048,1.1664,1.098304
10:13:28,30-Sep-21,1.0995,1.048,1.20890025,1.098304
10:13:28,30-Sep-21,1.0995,1.049,1.20890025,1.100401
10:13:28,30-Sep-21,1.1145,1.049,1.24211025,1.100401
10:13:28,30-Sep-21,1.1145,1.048,1.24211025,1.098304
10:13:28,30-Sep-21,1.1145,1.048,1.24211025,1.098304
10:13:28,30-Sep-21,1.1145,1.047,1.24211025,1.096209
10:13:28,30-Sep-21,1.1145,1.046,1.24211025,1.094116
10:13:28,30-Sep-21,1.1145,1.044,1.24211025,1.089936
10:13:28,30-Sep-21,1.085,1.043,1.177225,1.087849
10:13:28,30-Sep-21,1.0555,1.041,1.11408025,1.083681
10:13:28,30-Sep-21,1.0555,1.038,1.11408025,1.077444
10:13:28,30-Sep-21,1.0265,1.036,1.05370225,1.073296
10:13:28,30-Sep-21,1.007,1.033,1.014049,1.067089
10:13:28,30-Sep-21,1.007,1.03,1.014049,1.0609
10:13:28,30-Sep-21,1.007,1.027,1.014049,1.054729
10:13:28,30-Sep-21,0.992,1.024,0.984064,1.048576
10:13:28,30-Sep-21,0.992,1.02,0.984064,1.0404
10:13:28,30-Sep-21,0.9825,1.016,0.96530625,1.032256
10:13:28,30-Sep-21,0.9775,1.013,0.95550625,1.026169
10:13:28,30-Sep-21,0.9875,1.009,0.97515625,1.018081
10:13:28,30-Sep-21,0.9875,1.005,0.97515625,1.010025
10:13:28,30-Sep-21,0.9875,1.001,0.97515625,1.002001
10:13:28,30-Sep-21,0.9875,0.997,0.97515625,0.994009
10:13:28,30-Sep-21,0.992,0.993,0.984064,0.986049
10:13:28,30-Sep-21,0.992,0.988,0.984064,0.976144
10:13:28,30-Sep-21,0.9825,0.984,0.96530625,0.968256
10:13:28,30-Sep-21,0.9825,0.98,0.96530625,0.9604
10:13:28,30-Sep-21,0.9675,0.976,0.93605625,0.952576
10:13:28,30-Sep-21,0.958,0.972,0.917764,0.944784
10:13:28,30-Sep-21,0.958,0.968,0.917764,0.937024
