Time,Date,EMG Value (V),Filtered Value (V),,
11:11:44,30-Sep-21,0.0245,0.025,0.00060025,0.000625
11:11:44,30-Sep-21,0.0245,0.025,0.00060025,0.000625
11:11:44,30-Sep-21,0.0245,0.025,0.00060025,0.000625
11:11:44,30-Sep-21,0.0245,0.025,0.00060025,0.000625
11:11:44,30-Sep-21,0.0245,0.025,0.00060025,0.000625
11:11:44,30-Sep-21,0.0245,0.025,0.00060025,0.000625
11:11:44,30-Sep-21,0.0245,0.025,0.00060025,0.000625
11:11:45,30-Sep-21,0.0245,0.025,0.00060025,0.000625
11:11:45,30-Sep-21,0.0245,0.025,0.00060025,0.000625
11:11:45,30-Sep-21,0.0245,0.025,0.00060025,0.000625
11:11:45,30-Sep-21,0.0245,0.025,0.00060025,0.000625
11:11:45,30-Sep-21,0.0245,0.025,0.00060025,0.000625
11:11:45,30-Sep-21,0.0245,0.025,0.00060025,0.000625
11:11:45,30-Sep-21,0.0245,0.025,0.00060025,0.000625
11:11:45,30-Sep-21,0.0245,0.025,0.00060025,0.000625
11:11:45,30-Sep-21,0.0245,0.025,0.00060025,0.000625
11:11:45,30-Sep-21,0.0245,0.025,0.00060025,0.000625
11:11:45,30-Sep-21,0.0245,0.025,0.00060025,0.000625
11:11:45,30-Sep-21,0.0245,0.025,0.00060025,0.000625
11:11:45,30-Sep-21,0.0245,0.025,0.00060025,0.000625
11:11:45,30-Sep-21,0.0245,0.025,0.00060025,0.000625
11:11:45,30-Sep-21,0.0245,0.025,0.00060025,0.000625
11:11:45,30-Sep-21,0.0245,0.025,0.00060025,0.000625
11:11:45,30-Sep-21,0.0245,0.025,0.00060025,0.000625
11:11:45,30-Sep-21,0.0245,0.025,0.00060025,0.000625
11:11:45,30-Sep-21,0.0245,0.025,0.00060025,0.000625
11:11:45,30-Sep-21,0.0245,0.024,0.00060025,0.000576
11:11:45,30-Sep-21,0.0245,0.024,0.00060025,0.000576
11:11:45,30-Sep-21,0.0245,0.024,0.00060025,0.000576
11:11:45,30-Sep-21,0.0245,0.024,0.00060025,0.000576
11:11:45,30-Sep-21,0.0245,0.024,0.00060025,0.000576
11:11:45,30-Sep-21,0.0245,0.024,0.00060025,0.000576
11:11:45,30-Sep-21,0.0245,0.024,0.00060025,0.000576
11:11:45,30-Sep-21,0.0245,0.024,0.00060025,0.000576
11:11:45,30-Sep-21,0.0245,0.023,0.00060025,0.000529
11:11:45,30-Sep-21,0.0245,0.023,0.00060025,0.000529
11:11:45,30-Sep-21,0.0245,0.023,0.00060025,0.000529
11:11:45,30-Sep-21,0.0245,0.023,0.00060025,0.000529
11:11:45,30-Sep-21,0.0245,0.023,0.00060025,0.000529
11:11:45,30-Sep-21,0.0245,0.023,0.00060025,0.000529
11:11:45,30-Sep-21,0.0245,0.022,0.00060025,0.000484
11:11:45,30-Sep-21,0.0245,0.022,0.00060025,0.000484
11:11:45,30-Sep-21,0.0245,0.022,0.00060025,0.000484
11:11:45,30-Sep-21,0.0245,0.022,0.00060025,0.000484
11:11:45,30-Sep-21,0.0195,0.022,0.00038025,0.000484
11:11:45,30-Sep-21,0.0195,0.021,0.00038025,0.000441
11:11:45,30-Sep-21,0.0195,0.021,0.00038025,0.000441
11:11:45,30-Sep-21,0.0195,0.021,0.00038025,0.000441
11:11:45,30-Sep-21,0.0195,0.021,0.00038025,0.000441
11:11:45,30-Sep-21,0.0195,0.021,0.00038025,0.000441
11:11:45,30-Sep-21,0.0195,0.021,0.00038025,0.000441
11:11:45,30-Sep-21,0.0195,0.02,0.00038025,0.0004
11:11:45,30-Sep-21,0.0195,0.02,0.00038025,0.0004
11:11:45,30-Sep-21,0.0195,0.02,0.00038025,0.0004
11:11:45,30-Sep-21,0.0195,0.02,0.00038025,0.0004
11:11:45,30-Sep-21,0.0195,0.02,0.00038025,0.0004
11:11:45,30-Sep-21,0.0195,0.02,0.00038025,0.0004
11:11:45,30-Sep-21,0.0195,0.02,0.00038025,0.0004
11:11:45,30-Sep-21,0.0195,0.02,0.00038025,0.0004
11:11:45,30-Sep-21,0.0195,0.02,0.00038025,0.0004
11:11:45,30-Sep-21,0.0195,0.02,0.00038025,0.0004
11:11:45,30-Sep-21,0.0195,0.02,0.00038025,0.0004
11:11:45,30-Sep-21,0.0195,0.02,0.00038025,0.0004
11:11:45,30-Sep-21,0.0195,0.02,0.00038025,0.0004
11:11:45,30-Sep-21,0.0195,0.02,0.00038025,0.0004
11:11:45,30-Sep-21,0.0195,0.02,0.00038025,0.0004
11:11:45,30-Sep-21,0.0195,0.02,0.00038025,0.0004
11:11:45,30-Sep-21,0.0195,0.021,0.00038025,0.000441
11:11:45,30-Sep-21,0.0195,0.021,0.00038025,0.000441
11:11:45,30-Sep-21,0.0195,0.021,0.00038025,0.000441
11:11:45,30-Sep-21,0.0195,0.021,0.00038025,0.000441
11:11:45,30-Sep-21,0.0195,0.021,0.00038025,0.000441
11:11:45,30-Sep-21,0.0195,0.021,0.00038025,0.000441
11:11:45,30-Sep-21,0.0195,0.022,0.00038025,0.000484
11:11:45,30-Sep-21,0.0245,0.022,0.00060025,0.000484
11:11:45,30-Sep-21,0.0245,0.022,0.00060025,0.000484
11:11:45,30-Sep-21,0.0245,0.022,0.00060025,0.000484
11:11:45,30-Sep-21,0.0245,0.022,0.00060025,0.000484
11:11:45,30-Sep-21,0.0245,0.023,0.00060025,0.000529
11:11:45,30-Sep-21,0.0245,0.023,0.00060025,0.000529
11:11:45,30-Sep-21,0.0245,0.023,0.00060025,0.000529
11:11:45,30-Sep-21,0.0245,0.023,0.00060025,0.000529
11:11:45,30-Sep-21,0.0245,0.023,0.00060025,0.000529
11:11:45,30-Sep-21,0.0245,0.024,0.00060025,0.000576
11:11:45,30-Sep-21,0.0245,0.024,0.00060025,0.000576
11:11:45,30-Sep-21,0.0245,0.024,0.00060025,0.000576
11:11:45,30-Sep-21,0.0245,0.024,0.00060025,0.000576
11:11:45,30-Sep-21,0.0245,0.024,0.00060025,0.000576
11:11:45,30-Sep-21,0.0245,0.024,0.00060025,0.000576
11:11:45,30-Sep-21,0.0245,0.024,0.00060025,0.000576
11:11:45,30-Sep-21,0.0245,0.024,0.00060025,0.000576
11:11:45,30-Sep-21,0.0245,0.025,0.00060025,0.000625
11:11:45,30-Sep-21,0.0245,0.025,0.00060025,0.000625
11:11:45,30-Sep-21,0.0245,0.025,0.00060025,0.000625
11:11:45,30-Sep-21,0.0245,0.025,0.00060025,0.000625
11:11:45,30-Sep-21,0.0245,0.025,0.00060025,0.000625
11:11:45,30-Sep-21,0.0245,0.025,0.00060025,0.000625
11:11:45,30-Sep-21,0.0245,0.025,0.00060025,0.000625
11:11:45,30-Sep-21,0.0245,0.025,0.00060025,0.000625
11:11:45,30-Sep-21,0.0245,0.025,0.00060025,0.000625
11:11:45,30-Sep-21,0.0245,0.025,0.00060025,0.000625
11:11:45,30-Sep-21,0.0245,0.025,0.00060025,0.000625
11:11:45,30-Sep-21,0.0245,0.025,0.00060025,0.000625
11:11:45,30-Sep-21,0.0245,0.025,0.00060025,0.000625
11:11:45,30-Sep-21,0.0245,0.025,0.00060025,0.000625
11:11:45,30-Sep-21,0.0245,0.025,0.00060025,0.000625
11:11:45,30-Sep-21,0.0245,0.024,0.00060025,0.000576
11:11:45,30-Sep-21,0.0245,0.024,0.00060025,0.000576
11:11:45,30-Sep-21,0.0245,0.024,0.00060025,0.000576
11:11:45,30-Sep-21,0.0245,0.024,0.00060025,0.000576
11:11:45,30-Sep-21,0.0245,0.024,0.00060025,0.000576
11:11:45,30-Sep-21,0.0245,0.024,0.00060025,0.000576
11:11:45,30-Sep-21,0.0245,0.024,0.00060025,0.000576
11:11:45,30-Sep-21,0.0245,0.024,0.00060025,0.000576
11:11:45,30-Sep-21,0.0245,0.024,0.00060025,0.000576
11:11:45,30-Sep-21,0.0245,0.024,0.00060025,0.000576
11:11:45,30-Sep-21,0.0245,0.024,0.00060025,0.000576
11:11:45,30-Sep-21,0.0245,0.024,0.00060025,0.000576
11:11:45,30-Sep-21,0.0245,0.024,0.00060025,0.000576
11:11:45,30-Sep-21,0.0245,0.024,0.00060025,0.000576
11:11:45,30-Sep-21,0.0245,0.023,0.00060025,0.000529
11:11:45,30-Sep-21,0.0245,0.023,0.00060025,0.000529
11:11:45,30-Sep-21,0.0245,0.023,0.00060025,0.000529
11:11:45,30-Sep-21,0.0195,0.023,0.00038025,0.000529
11:11:45,30-Sep-21,0.0195,0.023,0.00038025,0.000529
11:11:45,30-Sep-21,0.0195,0.023,0.00038025,0.000529
11:11:45,30-Sep-21,0.0195,0.023,0.00038025,0.000529
11:11:45,30-Sep-21,0.0195,0.023,0.00038025,0.000529
11:11:45,30-Sep-21,0.0245,0.023,0.00060025,0.000529
11:11:45,30-Sep-21,0.0245,0.023,0.00060025,0.000529
11:11:45,30-Sep-21,0.0195,0.023,0.00038025,0.000529
11:11:45,30-Sep-21,0.0195,0.023,0.00038025,0.000529
11:11:45,30-Sep-21,0.0245,0.023,0.00060025,0.000529
11:11:45,30-Sep-21,0.0245,0.023,0.00060025,0.000529
11:11:45,30-Sep-21,0.0245,0.024,0.00060025,0.000576
11:11:45,30-Sep-21,0.0245,0.024,0.00060025,0.000576
11:11:45,30-Sep-21,0.0245,0.024,0.00060025,0.000576
11:11:45,30-Sep-21,0.0245,0.024,0.00060025,0.000576
11:11:45,30-Sep-21,0.0245,0.024,0.00060025,0.000576
11:11:45,30-Sep-21,0.0245,0.024,0.00060025,0.000576
11:11:45,30-Sep-21,0.0245,0.024,0.00060025,0.000576
11:11:45,30-Sep-21,0.0245,0.024,0.00060025,0.000576
11:11:45,30-Sep-21,0.0245,0.024,0.00060025,0.000576
11:11:45,30-Sep-21,0.0245,0.024,0.00060025,0.000576
11:11:45,30-Sep-21,0.0245,0.024,0.00060025,0.000576
11:11:45,30-Sep-21,0.0245,0.024,0.00060025,0.000576
11:11:46,30-Sep-21,0.0245,0.024,0.00060025,0.000576
11:11:46,30-Sep-21,0.0245,0.024,0.00060025,0.000576
11:11:46,30-Sep-21,0.0245,0.024,0.00060025,0.000576
11:11:46,30-Sep-21,0.0245,0.024,0.00060025,0.000576
11:11:46,30-Sep-21,0.0245,0.024,0.00060025,0.000576
11:11:46,30-Sep-21,0.0245,0.024,0.00060025,0.000576
11:11:46,30-Sep-21,0.0245,0.024,0.00060025,0.000576
11:11:46,30-Sep-21,0.0245,0.024,0.00060025,0.000576
11:11:46,30-Sep-21,0.0245,0.024,0.00060025,0.000576
11:11:46,30-Sep-21,0.0245,0.024,0.00060025,0.000576
11:11:46,30-Sep-21,0.0245,0.024,0.00060025,0.000576
11:11:46,30-Sep-21,0.0245,0.024,0.00060025,0.000576
11:11:46,30-Sep-21,0.0245,0.023,0.00060025,0.000529
11:11:46,30-Sep-21,0.0245,0.023,0.00060025,0.000529
11:11:46,30-Sep-21,0.0245,0.023,0.00060025,0.000529
11:11:46,30-Sep-21,0.0245,0.023,0.00060025,0.000529
11:11:46,30-Sep-21,0.0245,0.023,0.00060025,0.000529
11:11:46,30-Sep-21,0.0245,0.023,0.00060025,0.000529
11:11:46,30-Sep-21,0.0245,0.023,0.00060025,0.000529
11:11:46,30-Sep-21,0.0195,0.023,0.00038025,0.000529
11:11:46,30-Sep-21,0.0195,0.023,0.00038025,0.000529
11:11:46,30-Sep-21,0.0195,0.023,0.00038025,0.000529
11:11:46,30-Sep-21,0.0195,0.023,0.00038025,0.000529
11:11:46,30-Sep-21,0.0195,0.023,0.00038025,0.000529
11:11:46,30-Sep-21,0.0195,0.023,0.00038025,0.000529
11:11:46,30-Sep-21,0.0195,0.023,0.00038025,0.000529
11:11:46,30-Sep-21,0.0195,0.023,0.00038025,0.000529
11:11:46,30-Sep-21,0.0245,0.023,0.00060025,0.000529
11:11:46,30-Sep-21,0.0245,0.023,0.00060025,0.000529
11:11:46,30-Sep-21,0.0245,0.023,0.00060025,0.000529
11:11:46,30-Sep-21,0.0245,0.023,0.00060025,0.000529
11:11:46,30-Sep-21,0.0245,0.023,0.00060025,0.000529
11:11:46,30-Sep-21,0.0245,0.023,0.00060025,0.000529
11:11:46,30-Sep-21,0.0245,0.023,0.00060025,0.000529
11:11:46,30-Sep-21,0.0245,0.023,0.00060025,0.000529
11:11:46,30-Sep-21,0.0245,0.023,0.00060025,0.000529
11:11:46,30-Sep-21,0.0245,0.024,0.00060025,0.000576
11:11:46,30-Sep-21,0.0245,0.024,0.00060025,0.000576
11:11:46,30-Sep-21,0.0245,0.024,0.00060025,0.000576
11:11:46,30-Sep-21,0.0245,0.024,0.00060025,0.000576
11:11:46,30-Sep-21,0.0245,0.024,0.00060025,0.000576
11:11:46,30-Sep-21,0.0245,0.024,0.00060025,0.000576
11:11:46,30-Sep-21,0.0245,0.024,0.00060025,0.000576
11:11:46,30-Sep-21,0.0245,0.024,0.00060025,0.000576
11:11:46,30-Sep-21,0.0245,0.025,0.00060025,0.000625
11:11:46,30-Sep-21,0.0245,0.025,0.00060025,0.000625
11:11:46,30-Sep-21,0.0245,0.025,0.00060025,0.000625
11:11:46,30-Sep-21,0.0245,0.025,0.00060025,0.000625
11:11:46,30-Sep-21,0.0245,0.025,0.00060025,0.000625
11:11:46,30-Sep-21,0.0245,0.025,0.00060025,0.000625
11:11:46,30-Sep-21,0.0245,0.026,0.00060025,0.000676
11:11:46,30-Sep-21,0.0245,0.026,0.00060025,0.000676
11:11:46,30-Sep-21,0.0245,0.026,0.00060025,0.000676
11:11:46,30-Sep-21,0.0245,0.026,0.00060025,0.000676
11:11:46,30-Sep-21,0.0245,0.026,0.00060025,0.000676
11:11:46,30-Sep-21,0.0245,0.026,0.00060025,0.000676
11:11:46,30-Sep-21,0.0245,0.027,0.00060025,0.000729
11:11:46,30-Sep-21,0.0295,0.027,0.00087025,0.000729
11:11:46,30-Sep-21,0.0295,0.027,0.00087025,0.000729
11:11:46,30-Sep-21,0.0295,0.027,0.00087025,0.000729
11:11:46,30-Sep-21,0.0295,0.027,0.00087025,0.000729
11:11:46,30-Sep-21,0.0295,0.027,0.00087025,0.000729
11:11:46,30-Sep-21,0.0245,0.028,0.00060025,0.000784
11:11:46,30-Sep-21,0.0245,0.028,0.00060025,0.000784
11:11:46,30-Sep-21,0.0295,0.028,0.00087025,0.000784
11:11:46,30-Sep-21,0.0295,0.028,0.00087025,0.000784
11:11:46,30-Sep-21,0.0295,0.028,0.00087025,0.000784
11:11:46,30-Sep-21,0.0295,0.028,0.00087025,0.000784
11:11:46,30-Sep-21,0.0295,0.028,0.00087025,0.000784
11:11:46,30-Sep-21,0.0295,0.028,0.00087025,0.000784
11:11:46,30-Sep-21,0.0295,0.028,0.00087025,0.000784
11:11:46,30-Sep-21,0.0295,0.028,0.00087025,0.000784
11:11:46,30-Sep-21,0.0295,0.029,0.00087025,0.000841
11:11:46,30-Sep-21,0.0295,0.029,0.00087025,0.000841
11:11:46,30-Sep-21,0.0295,0.029,0.00087025,0.000841
11:11:46,30-Sep-21,0.0295,0.029,0.00087025,0.000841
11:11:46,30-Sep-21,0.0245,0.029,0.00060025,0.000841
11:11:46,30-Sep-21,0.0245,0.029,0.00060025,0.000841
11:11:46,30-Sep-21,0.0295,0.029,0.00087025,0.000841
11:11:46,30-Sep-21,0.0295,0.029,0.00087025,0.000841
11:11:46,30-Sep-21,0.0295,0.029,0.00087025,0.000841
11:11:46,30-Sep-21,0.0295,0.029,0.00087025,0.000841
11:11:46,30-Sep-21,0.0295,0.029,0.00087025,0.000841
11:11:46,30-Sep-21,0.0295,0.029,0.00087025,0.000841
11:11:46,30-Sep-21,0.0295,0.029,0.00087025,0.000841
11:11:46,30-Sep-21,0.0295,0.029,0.00087025,0.000841
11:11:46,30-Sep-21,0.0295,0.029,0.00087025,0.000841
11:11:46,30-Sep-21,0.0295,0.029,0.00087025,0.000841
11:11:46,30-Sep-21,0.0295,0.029,0.00087025,0.000841
11:11:46,30-Sep-21,0.0245,0.029,0.00060025,0.000841
11:11:46,30-Sep-21,0.0245,0.029,0.00060025,0.000841
11:11:46,30-Sep-21,0.0295,0.029,0.00087025,0.000841
11:11:46,30-Sep-21,0.0295,0.029,0.00087025,0.000841
11:11:46,30-Sep-21,0.0295,0.029,0.00087025,0.000841
11:11:46,30-Sep-21,0.0295,0.029,0.00087025,0.000841
11:11:46,30-Sep-21,0.0295,0.029,0.00087025,0.000841
11:11:46,30-Sep-21,0.0295,0.029,0.00087025,0.000841
11:11:46,30-Sep-21,0.0295,0.029,0.00087025,0.000841
11:11:46,30-Sep-21,0.0295,0.029,0.00087025,0.000841
11:11:46,30-Sep-21,0.0245,0.029,0.00060025,0.000841
11:11:46,30-Sep-21,0.0245,0.029,0.00060025,0.000841
11:11:46,30-Sep-21,0.0245,0.029,0.00060025,0.000841
11:11:46,30-Sep-21,0.0295,0.029,0.00087025,0.000841
11:11:46,30-Sep-21,0.0295,0.029,0.00087025,0.000841
11:11:46,30-Sep-21,0.0295,0.029,0.00087025,0.000841
11:11:46,30-Sep-21,0.0295,0.029,0.00087025,0.000841
11:11:46,30-Sep-21,0.0295,0.029,0.00087025,0.000841
11:11:46,30-Sep-21,0.0295,0.029,0.00087025,0.000841
11:11:46,30-Sep-21,0.0295,0.029,0.00087025,0.000841
11:11:46,30-Sep-21,0.0295,0.029,0.00087025,0.000841
11:11:46,30-Sep-21,0.0295,0.029,0.00087025,0.000841
11:11:46,30-Sep-21,0.0295,0.029,0.00087025,0.000841
11:11:46,30-Sep-21,0.0295,0.029,0.00087025,0.000841
11:11:46,30-Sep-21,0.0295,0.029,0.00087025,0.000841
11:11:46,30-Sep-21,0.0295,0.029,0.00087025,0.000841
11:11:46,30-Sep-21,0.0295,0.029,0.00087025,0.000841
11:11:46,30-Sep-21,0.0295,0.029,0.00087025,0.000841
11:11:46,30-Sep-21,0.0295,0.029,0.00087025,0.000841
11:11:46,30-Sep-21,0.0295,0.029,0.00087025,0.000841
11:11:46,30-Sep-21,0.0295,0.029,0.00087025,0.000841
11:11:46,30-Sep-21,0.0295,0.029,0.00087025,0.000841
11:11:46,30-Sep-21,0.0295,0.029,0.00087025,0.000841
11:11:46,30-Sep-21,0.0295,0.029,0.00087025,0.000841
11:11:46,30-Sep-21,0.0295,0.029,0.00087025,0.000841
11:11:46,30-Sep-21,0.0295,0.029,0.00087025,0.000841
11:11:46,30-Sep-21,0.0295,0.029,0.00087025,0.000841
11:11:46,30-Sep-21,0.0295,0.029,0.00087025,0.000841
11:11:46,30-Sep-21,0.0295,0.028,0.00087025,0.000784
11:11:46,30-Sep-21,0.0295,0.028,0.00087025,0.000784
11:11:46,30-Sep-21,0.0295,0.028,0.00087025,0.000784
11:11:46,30-Sep-21,0.0295,0.028,0.00087025,0.000784
11:11:46,30-Sep-21,0.0295,0.028,0.00087025,0.000784
11:11:46,30-Sep-21,0.0295,0.028,0.00087025,0.000784
11:11:46,30-Sep-21,0.0295,0.028,0.00087025,0.000784
11:11:46,30-Sep-21,0.0295,0.028,0.00087025,0.000784
11:11:46,30-Sep-21,0.0295,0.027,0.00087025,0.000729
11:11:46,30-Sep-21,0.0295,0.027,0.00087025,0.000729
11:11:46,30-Sep-21,0.0295,0.027,0.00087025,0.000729
11:11:46,30-Sep-21,0.0245,0.027,0.00060025,0.000729
11:11:46,30-Sep-21,0.0245,0.027,0.00060025,0.000729
11:11:46,30-Sep-21,0.0245,0.027,0.00060025,0.000729
11:11:46,30-Sep-21,0.0245,0.027,0.00060025,0.000729
11:11:46,30-Sep-21,0.0245,0.027,0.00060025,0.000729
11:11:46,30-Sep-21,0.0245,0.026,0.00060025,0.000676
11:11:46,30-Sep-21,0.0245,0.026,0.00060025,0.000676
11:11:46,30-Sep-21,0.0245,0.026,0.00060025,0.000676
11:11:46,30-Sep-21,0.0245,0.026,0.00060025,0.000676
11:11:46,30-Sep-21,0.0245,0.026,0.00060025,0.000676
11:11:46,30-Sep-21,0.0245,0.026,0.00060025,0.000676
11:11:47,30-Sep-21,0.0245,0.026,0.00060025,0.000676
11:11:47,30-Sep-21,0.0245,0.026,0.00060025,0.000676
11:11:47,30-Sep-21,0.0245,0.026,0.00060025,0.000676
11:11:47,30-Sep-21,0.0245,0.026,0.00060025,0.000676
11:11:47,30-Sep-21,0.0245,0.027,0.00060025,0.000729
11:11:47,30-Sep-21,0.0245,0.027,0.00060025,0.000729
11:11:47,30-Sep-21,0.0245,0.027,0.00060025,0.000729
11:11:47,30-Sep-21,0.0245,0.027,0.00060025,0.000729
11:11:47,30-Sep-21,0.0295,0.027,0.00087025,0.000729
11:11:47,30-Sep-21,0.0295,0.027,0.00087025,0.000729
11:11:47,30-Sep-21,0.0295,0.027,0.00087025,0.000729
11:11:47,30-Sep-21,0.0295,0.027,0.00087025,0.000729
11:11:47,30-Sep-21,0.0295,0.028,0.00087025,0.000784
11:11:47,30-Sep-21,0.0295,0.028,0.00087025,0.000784
11:11:47,30-Sep-21,0.0295,0.028,0.00087025,0.000784
11:11:47,30-Sep-21,0.0295,0.028,0.00087025,0.000784
11:11:47,30-Sep-21,0.0295,0.028,0.00087025,0.000784
11:11:47,30-Sep-21,0.0295,0.028,0.00087025,0.000784
11:11:47,30-Sep-21,0.0295,0.028,0.00087025,0.000784
11:11:47,30-Sep-21,0.0295,0.029,0.00087025,0.000841
11:11:47,30-Sep-21,0.0295,0.029,0.00087025,0.000841
11:11:47,30-Sep-21,0.0295,0.029,0.00087025,0.000841
11:11:47,30-Sep-21,0.0295,0.029,0.00087025,0.000841
11:11:47,30-Sep-21,0.0295,0.029,0.00087025,0.000841
11:11:47,30-Sep-21,0.0295,0.029,0.00087025,0.000841
11:11:47,30-Sep-21,0.0295,0.029,0.00087025,0.000841
11:11:47,30-Sep-21,0.0295,0.029,0.00087025,0.000841
11:11:47,30-Sep-21,0.0295,0.029,0.00087025,0.000841
11:11:47,30-Sep-21,0.0295,0.03,0.00087025,0.0009
11:11:47,30-Sep-21,0.0295,0.03,0.00087025,0.0009
11:11:47,30-Sep-21,0.0295,0.03,0.00087025,0.0009
11:11:47,30-Sep-21,0.0295,0.03,0.00087025,0.0009
11:11:47,30-Sep-21,0.0295,0.03,0.00087025,0.0009
11:11:47,30-Sep-21,0.0295,0.03,0.00087025,0.0009
11:11:47,30-Sep-21,0.0295,0.03,0.00087025,0.0009
11:11:47,30-Sep-21,0.0295,0.03,0.00087025,0.0009
11:11:47,30-Sep-21,0.0295,0.03,0.00087025,0.0009
11:11:47,30-Sep-21,0.0295,0.03,0.00087025,0.0009
11:11:47,30-Sep-21,0.0295,0.03,0.00087025,0.0009
11:11:47,30-Sep-21,0.0295,0.03,0.00087025,0.0009
11:11:47,30-Sep-21,0.0295,0.03,0.00087025,0.0009
11:11:47,30-Sep-21,0.0295,0.03,0.00087025,0.0009
11:11:47,30-Sep-21,0.0295,0.03,0.00087025,0.0009
11:11:47,30-Sep-21,0.0295,0.03,0.00087025,0.0009
11:11:47,30-Sep-21,0.0295,0.03,0.00087025,0.0009
11:11:47,30-Sep-21,0.0295,0.03,0.00087025,0.0009
11:11:47,30-Sep-21,0.0295,0.03,0.00087025,0.0009
11:11:47,30-Sep-21,0.0295,0.03,0.00087025,0.0009
11:11:47,30-Sep-21,0.0295,0.03,0.00087025,0.0009
11:11:47,30-Sep-21,0.0295,0.03,0.00087025,0.0009
11:11:47,30-Sep-21,0.0295,0.03,0.00087025,0.0009
11:11:47,30-Sep-21,0.0295,0.03,0.00087025,0.0009
11:11:47,30-Sep-21,0.0295,0.029,0.00087025,0.000841
11:11:47,30-Sep-21,0.0295,0.029,0.00087025,0.000841
11:11:47,30-Sep-21,0.0295,0.029,0.00087025,0.000841
11:11:47,30-Sep-21,0.0295,0.029,0.00087025,0.000841
11:11:47,30-Sep-21,0.0295,0.029,0.00087025,0.000841
11:11:47,30-Sep-21,0.0295,0.029,0.00087025,0.000841
11:11:47,30-Sep-21,0.0295,0.029,0.00087025,0.000841
11:11:47,30-Sep-21,0.0295,0.029,0.00087025,0.000841
11:11:47,30-Sep-21,0.0295,0.029,0.00087025,0.000841
11:11:47,30-Sep-21,0.0295,0.029,0.00087025,0.000841
11:11:47,30-Sep-21,0.0295,0.029,0.00087025,0.000841
11:11:47,30-Sep-21,0.0295,0.029,0.00087025,0.000841
11:11:47,30-Sep-21,0.0295,0.029,0.00087025,0.000841
11:11:47,30-Sep-21,0.0295,0.029,0.00087025,0.000841
11:11:47,30-Sep-21,0.0295,0.029,0.00087025,0.000841
11:11:47,30-Sep-21,0.0295,0.029,0.00087025,0.000841
11:11:47,30-Sep-21,0.0295,0.029,0.00087025,0.000841
11:11:47,30-Sep-21,0.0245,0.029,0.00060025,0.000841
11:11:47,30-Sep-21,0.0245,0.029,0.00060025,0.000841
11:11:47,30-Sep-21,0.0245,0.029,0.00060025,0.000841
11:11:47,30-Sep-21,0.0245,0.029,0.00060025,0.000841
11:11:47,30-Sep-21,0.0295,0.029,0.00087025,0.000841
11:11:47,30-Sep-21,0.0295,0.029,0.00087025,0.000841
11:11:47,30-Sep-21,0.0295,0.029,0.00087025,0.000841
11:11:47,30-Sep-21,0.0295,0.028,0.00087025,0.000784
11:11:47,30-Sep-21,0.0295,0.028,0.00087025,0.000784
11:11:47,30-Sep-21,0.0295,0.028,0.00087025,0.000784
11:11:47,30-Sep-21,0.0295,0.028,0.00087025,0.000784
11:11:47,30-Sep-21,0.0295,0.028,0.00087025,0.000784
11:11:47,30-Sep-21,0.0295,0.028,0.00087025,0.000784
11:11:47,30-Sep-21,0.0295,0.028,0.00087025,0.000784
11:11:47,30-Sep-21,0.0295,0.028,0.00087025,0.000784
11:11:47,30-Sep-21,0.0295,0.028,0.00087025,0.000784
11:11:47,30-Sep-21,0.0295,0.028,0.00087025,0.000784
11:11:47,30-Sep-21,0.0295,0.028,0.00087025,0.000784
11:11:47,30-Sep-21,0.0295,0.028,0.00087025,0.000784
11:11:47,30-Sep-21,0.0295,0.028,0.00087025,0.000784
11:11:47,30-Sep-21,0.0295,0.028,0.00087025,0.000784
11:11:47,30-Sep-21,0.0295,0.028,0.00087025,0.000784
11:11:47,30-Sep-21,0.0295,0.028,0.00087025,0.000784
11:11:47,30-Sep-21,0.0295,0.028,0.00087025,0.000784
11:11:47,30-Sep-21,0.0295,0.028,0.00087025,0.000784
11:11:47,30-Sep-21,0.0245,0.028,0.00060025,0.000784
11:11:47,30-Sep-21,0.0245,0.028,0.00060025,0.000784
11:11:47,30-Sep-21,0.0245,0.028,0.00060025,0.000784
11:11:47,30-Sep-21,0.0245,0.028,0.00060025,0.000784
11:11:47,30-Sep-21,0.0245,0.028,0.00060025,0.000784
11:11:47,30-Sep-21,0.0245,0.028,0.00060025,0.000784
11:11:47,30-Sep-21,0.0245,0.028,0.00060025,0.000784
11:11:47,30-Sep-21,0.0245,0.028,0.00060025,0.000784
11:11:47,30-Sep-21,0.0295,0.028,0.00087025,0.000784
11:11:47,30-Sep-21,0.0295,0.028,0.00087025,0.000784
11:11:47,30-Sep-21,0.0295,0.028,0.00087025,0.000784
11:11:47,30-Sep-21,0.0295,0.028,0.00087025,0.000784
11:11:47,30-Sep-21,0.0295,0.028,0.00087025,0.000784
11:11:47,30-Sep-21,0.0295,0.028,0.00087025,0.000784
11:11:47,30-Sep-21,0.0295,0.028,0.00087025,0.000784
11:11:47,30-Sep-21,0.0295,0.029,0.00087025,0.000841
11:11:47,30-Sep-21,0.0295,0.029,0.00087025,0.000841
11:11:47,30-Sep-21,0.0295,0.029,0.00087025,0.000841
11:11:47,30-Sep-21,0.0295,0.029,0.00087025,0.000841
11:11:47,30-Sep-21,0.0295,0.029,0.00087025,0.000841
11:11:47,30-Sep-21,0.0295,0.029,0.00087025,0.000841
11:11:47,30-Sep-21,0.0295,0.029,0.00087025,0.000841
11:11:47,30-Sep-21,0.0295,0.029,0.00087025,0.000841
11:11:47,30-Sep-21,0.0295,0.029,0.00087025,0.000841
11:11:47,30-Sep-21,0.0295,0.029,0.00087025,0.000841
11:11:47,30-Sep-21,0.0295,0.029,0.00087025,0.000841
11:11:47,30-Sep-21,0.0295,0.029,0.00087025,0.000841
11:11:47,30-Sep-21,0.0295,0.029,0.00087025,0.000841
11:11:47,30-Sep-21,0.0295,0.029,0.00087025,0.000841
11:11:47,30-Sep-21,0.0295,0.029,0.00087025,0.000841
11:11:47,30-Sep-21,0.0295,0.029,0.00087025,0.000841
11:11:47,30-Sep-21,0.0295,0.029,0.00087025,0.000841
11:11:47,30-Sep-21,0.0295,0.029,0.00087025,0.000841
11:11:47,30-Sep-21,0.0295,0.029,0.00087025,0.000841
11:11:47,30-Sep-21,0.0295,0.029,0.00087025,0.000841
11:11:47,30-Sep-21,0.0295,0.029,0.00087025,0.000841
11:11:47,30-Sep-21,0.0295,0.029,0.00087025,0.000841
11:11:47,30-Sep-21,0.0295,0.029,0.00087025,0.000841
11:11:47,30-Sep-21,0.0295,0.029,0.00087025,0.000841
11:11:47,30-Sep-21,0.0295,0.029,0.00087025,0.000841
11:11:47,30-Sep-21,0.0245,0.029,0.00060025,0.000841
11:11:47,30-Sep-21,0.0245,0.029,0.00060025,0.000841
11:11:47,30-Sep-21,0.0245,0.029,0.00060025,0.000841
11:11:47,30-Sep-21,0.0245,0.029,0.00060025,0.000841
11:11:47,30-Sep-21,0.0295,0.029,0.00087025,0.000841
11:11:47,30-Sep-21,0.0295,0.029,0.00087025,0.000841
11:11:47,30-Sep-21,0.0295,0.029,0.00087025,0.000841
11:11:47,30-Sep-21,0.0295,0.029,0.00087025,0.000841
11:11:47,30-Sep-21,0.0295,0.029,0.00087025,0.000841
11:11:47,30-Sep-21,0.0295,0.029,0.00087025,0.000841
11:11:47,30-Sep-21,0.0295,0.029,0.00087025,0.000841
11:11:47,30-Sep-21,0.0295,0.029,0.00087025,0.000841
11:11:47,30-Sep-21,0.0295,0.029,0.00087025,0.000841
11:11:47,30-Sep-21,0.0295,0.029,0.00087025,0.000841
11:11:47,30-Sep-21,0.0295,0.029,0.00087025,0.000841
11:11:47,30-Sep-21,0.0295,0.029,0.00087025,0.000841
11:11:47,30-Sep-21,0.0295,0.029,0.00087025,0.000841
11:11:47,30-Sep-21,0.0295,0.029,0.00087025,0.000841
11:11:47,30-Sep-21,0.0295,0.028,0.00087025,0.000784
11:11:47,30-Sep-21,0.0295,0.028,0.00087025,0.000784
11:11:47,30-Sep-21,0.0295,0.028,0.00087025,0.000784
11:11:47,30-Sep-21,0.0295,0.028,0.00087025,0.000784
11:11:47,30-Sep-21,0.0295,0.028,0.00087025,0.000784
11:11:47,30-Sep-21,0.0295,0.028,0.00087025,0.000784
11:11:47,30-Sep-21,0.0295,0.028,0.00087025,0.000784
11:11:47,30-Sep-21,0.0295,0.028,0.00087025,0.000784
11:11:47,30-Sep-21,0.0245,0.028,0.00060025,0.000784
11:11:47,30-Sep-21,0.0245,0.027,0.00060025,0.000729
11:11:47,30-Sep-21,0.0245,0.027,0.00060025,0.000729
11:11:47,30-Sep-21,0.0295,0.027,0.00087025,0.000729
11:11:47,30-Sep-21,0.0295,0.027,0.00087025,0.000729
11:11:47,30-Sep-21,0.0295,0.027,0.00087025,0.000729
11:11:47,30-Sep-21,0.0295,0.027,0.00087025,0.000729
11:11:47,30-Sep-21,0.0295,0.027,0.00087025,0.000729
11:11:47,30-Sep-21,0.0295,0.027,0.00087025,0.000729
11:11:47,30-Sep-21,0.0245,0.026,0.00060025,0.000676
11:11:47,30-Sep-21,0.0245,0.026,0.00060025,0.000676
11:11:47,30-Sep-21,0.0245,0.026,0.00060025,0.000676
11:11:47,30-Sep-21,0.0245,0.026,0.00060025,0.000676
11:11:47,30-Sep-21,0.0245,0.026,0.00060025,0.000676
11:11:47,30-Sep-21,0.0245,0.026,0.00060025,0.000676
11:11:47,30-Sep-21,0.0245,0.026,0.00060025,0.000676
11:11:47,30-Sep-21,0.0245,0.026,0.00060025,0.000676
11:11:48,30-Sep-21,0.0245,0.026,0.00060025,0.000676
11:11:48,30-Sep-21,0.0245,0.026,0.00060025,0.000676
11:11:48,30-Sep-21,0.0245,0.026,0.00060025,0.000676
11:11:48,30-Sep-21,0.0245,0.026,0.00060025,0.000676
11:11:48,30-Sep-21,0.0245,0.026,0.00060025,0.000676
11:11:48,30-Sep-21,0.0245,0.026,0.00060025,0.000676
11:11:48,30-Sep-21,0.0245,0.026,0.00060025,0.000676
11:11:48,30-Sep-21,0.0245,0.026,0.00060025,0.000676
11:11:48,30-Sep-21,0.0245,0.026,0.00060025,0.000676
11:11:48,30-Sep-21,0.0295,0.026,0.00087025,0.000676
11:11:48,30-Sep-21,0.0295,0.026,0.00087025,0.000676
11:11:48,30-Sep-21,0.0245,0.026,0.00060025,0.000676
11:11:48,30-Sep-21,0.0245,0.027,0.00060025,0.000729
11:11:48,30-Sep-21,0.0245,0.027,0.00060025,0.000729
11:11:48,30-Sep-21,0.0295,0.027,0.00087025,0.000729
11:11:48,30-Sep-21,0.0295,0.027,0.00087025,0.000729
11:11:48,30-Sep-21,0.0295,0.027,0.00087025,0.000729
11:11:48,30-Sep-21,0.0295,0.027,0.00087025,0.000729
11:11:48,30-Sep-21,0.0245,0.027,0.00060025,0.000729
11:11:48,30-Sep-21,0.0245,0.027,0.00060025,0.000729
11:11:48,30-Sep-21,0.0245,0.027,0.00060025,0.000729
11:11:48,30-Sep-21,0.0245,0.027,0.00060025,0.000729
11:11:48,30-Sep-21,0.0295,0.027,0.00087025,0.000729
11:11:48,30-Sep-21,0.0295,0.028,0.00087025,0.000784
11:11:48,30-Sep-21,0.0295,0.028,0.00087025,0.000784
11:11:48,30-Sep-21,0.0295,0.028,0.00087025,0.000784
11:11:48,30-Sep-21,0.0295,0.028,0.00087025,0.000784
11:11:48,30-Sep-21,0.0295,0.028,0.00087025,0.000784
11:11:48,30-Sep-21,0.0295,0.028,0.00087025,0.000784
11:11:48,30-Sep-21,0.0295,0.028,0.00087025,0.000784
11:11:48,30-Sep-21,0.0295,0.028,0.00087025,0.000784
11:11:48,30-Sep-21,0.0295,0.028,0.00087025,0.000784
11:11:48,30-Sep-21,0.0295,0.028,0.00087025,0.000784
11:11:48,30-Sep-21,0.0295,0.028,0.00087025,0.000784
11:11:48,30-Sep-21,0.0295,0.028,0.00087025,0.000784
11:11:48,30-Sep-21,0.0295,0.028,0.00087025,0.000784
11:11:48,30-Sep-21,0.0295,0.027,0.00087025,0.000729
11:11:48,30-Sep-21,0.0295,0.027,0.00087025,0.000729
11:11:48,30-Sep-21,0.0295,0.027,0.00087025,0.000729
11:11:48,30-Sep-21,0.0245,0.027,0.00060025,0.000729
11:11:48,30-Sep-21,0.0245,0.027,0.00060025,0.000729
11:11:48,30-Sep-21,0.0245,0.027,0.00060025,0.000729
11:11:48,30-Sep-21,0.0245,0.027,0.00060025,0.000729
11:11:48,30-Sep-21,0.0245,0.027,0.00060025,0.000729
11:11:48,30-Sep-21,0.0245,0.027,0.00060025,0.000729
11:11:48,30-Sep-21,0.0245,0.027,0.00060025,0.000729
11:11:48,30-Sep-21,0.0245,0.027,0.00060025,0.000729
11:11:48,30-Sep-21,0.0295,0.027,0.00087025,0.000729
11:11:48,30-Sep-21,0.0295,0.027,0.00087025,0.000729
11:11:48,30-Sep-21,0.0295,0.027,0.00087025,0.000729
11:11:48,30-Sep-21,0.0245,0.027,0.00060025,0.000729
11:11:48,30-Sep-21,0.0245,0.027,0.00060025,0.000729
11:11:48,30-Sep-21,0.0245,0.027,0.00060025,0.000729
11:11:48,30-Sep-21,0.0245,0.027,0.00060025,0.000729
11:11:48,30-Sep-21,0.0245,0.027,0.00060025,0.000729
11:11:48,30-Sep-21,0.0245,0.027,0.00060025,0.000729
11:11:48,30-Sep-21,0.0245,0.027,0.00060025,0.000729
11:11:48,30-Sep-21,0.0245,0.027,0.00060025,0.000729
11:11:48,30-Sep-21,0.0245,0.027,0.00060025,0.000729
11:11:48,30-Sep-21,0.0245,0.027,0.00060025,0.000729
11:11:48,30-Sep-21,0.0295,0.028,0.00087025,0.000784
11:11:48,30-Sep-21,0.0295,0.028,0.00087025,0.000784
11:11:48,30-Sep-21,0.0295,0.028,0.00087025,0.000784
11:11:48,30-Sep-21,0.0295,0.028,0.00087025,0.000784
11:11:48,30-Sep-21,0.0295,0.028,0.00087025,0.000784
11:11:48,30-Sep-21,0.0295,0.028,0.00087025,0.000784
11:11:48,30-Sep-21,0.0295,0.028,0.00087025,0.000784
11:11:48,30-Sep-21,0.0295,0.028,0.00087025,0.000784
11:11:48,30-Sep-21,0.0295,0.028,0.00087025,0.000784
11:11:48,30-Sep-21,0.0295,0.028,0.00087025,0.000784
11:11:48,30-Sep-21,0.0295,0.028,0.00087025,0.000784
11:11:48,30-Sep-21,0.0295,0.028,0.00087025,0.000784
11:11:48,30-Sep-21,0.0295,0.028,0.00087025,0.000784
11:11:48,30-Sep-21,0.0295,0.028,0.00087025,0.000784
11:11:48,30-Sep-21,0.0295,0.028,0.00087025,0.000784
11:11:48,30-Sep-21,0.0295,0.028,0.00087025,0.000784
11:11:48,30-Sep-21,0.0295,0.028,0.00087025,0.000784
11:11:48,30-Sep-21,0.0295,0.028,0.00087025,0.000784
11:11:48,30-Sep-21,0.0295,0.028,0.00087025,0.000784
11:11:48,30-Sep-21,0.0295,0.028,0.00087025,0.000784
11:11:48,30-Sep-21,0.0295,0.028,0.00087025,0.000784
11:11:48,30-Sep-21,0.0295,0.028,0.00087025,0.000784
11:11:48,30-Sep-21,0.0295,0.028,0.00087025,0.000784
11:11:48,30-Sep-21,0.0295,0.028,0.00087025,0.000784
11:11:48,30-Sep-21,0.0295,0.028,0.00087025,0.000784
11:11:48,30-Sep-21,0.0245,0.028,0.00060025,0.000784
11:11:48,30-Sep-21,0.0245,0.027,0.00060025,0.000729
11:11:48,30-Sep-21,0.0245,0.027,0.00060025,0.000729
11:11:48,30-Sep-21,0.0245,0.027,0.00060025,0.000729
11:11:48,30-Sep-21,0.0245,0.027,0.00060025,0.000729
11:11:48,30-Sep-21,0.0245,0.027,0.00060025,0.000729
11:11:48,30-Sep-21,0.0245,0.027,0.00060025,0.000729
11:11:48,30-Sep-21,0.0245,0.027,0.00060025,0.000729
11:11:48,30-Sep-21,0.0245,0.027,0.00060025,0.000729
11:11:48,30-Sep-21,0.0245,0.026,0.00060025,0.000676
11:11:48,30-Sep-21,0.0245,0.026,0.00060025,0.000676
11:11:48,30-Sep-21,0.0295,0.026,0.00087025,0.000676
11:11:48,30-Sep-21,0.0295,0.026,0.00087025,0.000676
11:11:48,30-Sep-21,0.0295,0.026,0.00087025,0.000676
11:11:48,30-Sep-21,0.0245,0.026,0.00060025,0.000676
11:11:48,30-Sep-21,0.0245,0.026,0.00060025,0.000676
11:11:48,30-Sep-21,0.0245,0.026,0.00060025,0.000676
11:11:48,30-Sep-21,0.0295,0.026,0.00087025,0.000676
11:11:48,30-Sep-21,0.0295,0.026,0.00087025,0.000676
11:11:48,30-Sep-21,0.0245,0.025,0.00060025,0.000625
11:11:48,30-Sep-21,0.0245,0.025,0.00060025,0.000625
11:11:48,30-Sep-21,0.0245,0.025,0.00060025,0.000625
11:11:48,30-Sep-21,0.0245,0.025,0.00060025,0.000625
11:11:48,30-Sep-21,0.0245,0.025,0.00060025,0.000625
11:11:48,30-Sep-21,0.0245,0.025,0.00060025,0.000625
11:11:48,30-Sep-21,0.0245,0.025,0.00060025,0.000625
11:11:48,30-Sep-21,0.0245,0.025,0.00060025,0.000625
11:11:48,30-Sep-21,0.0245,0.025,0.00060025,0.000625
11:11:48,30-Sep-21,0.0245,0.025,0.00060025,0.000625
11:11:48,30-Sep-21,0.0245,0.025,0.00060025,0.000625
11:11:48,30-Sep-21,0.0245,0.025,0.00060025,0.000625
11:11:48,30-Sep-21,0.0245,0.025,0.00060025,0.000625
11:11:48,30-Sep-21,0.0245,0.025,0.00060025,0.000625
11:11:48,30-Sep-21,0.0245,0.025,0.00060025,0.000625
11:11:48,30-Sep-21,0.0245,0.025,0.00060025,0.000625
11:11:48,30-Sep-21,0.0245,0.024,0.00060025,0.000576
11:11:48,30-Sep-21,0.0245,0.024,0.00060025,0.000576
11:11:48,30-Sep-21,0.0245,0.024,0.00060025,0.000576
11:11:48,30-Sep-21,0.0245,0.024,0.00060025,0.000576
11:11:48,30-Sep-21,0.0245,0.024,0.00060025,0.000576
11:11:48,30-Sep-21,0.0245,0.024,0.00060025,0.000576
11:11:48,30-Sep-21,0.0245,0.024,0.00060025,0.000576
11:11:48,30-Sep-21,0.0245,0.024,0.00060025,0.000576
11:11:48,30-Sep-21,0.0245,0.024,0.00060025,0.000576
11:11:48,30-Sep-21,0.0245,0.024,0.00060025,0.000576
11:11:48,30-Sep-21,0.0245,0.024,0.00060025,0.000576
11:11:48,30-Sep-21,0.0245,0.024,0.00060025,0.000576
11:11:48,30-Sep-21,0.0245,0.024,0.00060025,0.000576
11:11:48,30-Sep-21,0.0245,0.024,0.00060025,0.000576
11:11:48,30-Sep-21,0.0245,0.024,0.00060025,0.000576
11:11:48,30-Sep-21,0.0245,0.024,0.00060025,0.000576
11:11:48,30-Sep-21,0.0245,0.024,0.00060025,0.000576
11:11:48,30-Sep-21,0.0245,0.024,0.00060025,0.000576
11:11:48,30-Sep-21,0.0245,0.024,0.00060025,0.000576
11:11:48,30-Sep-21,0.0245,0.023,0.00060025,0.000529
11:11:48,30-Sep-21,0.0245,0.023,0.00060025,0.000529
11:11:48,30-Sep-21,0.0245,0.023,0.00060025,0.000529
11:11:48,30-Sep-21,0.0245,0.023,0.00060025,0.000529
11:11:48,30-Sep-21,0.0195,0.023,0.00038025,0.000529
11:11:48,30-Sep-21,0.0195,0.023,0.00038025,0.000529
11:11:48,30-Sep-21,0.0195,0.023,0.00038025,0.000529
11:11:48,30-Sep-21,0.0195,0.023,0.00038025,0.000529
11:11:48,30-Sep-21,0.0195,0.023,0.00038025,0.000529
11:11:48,30-Sep-21,0.0195,0.023,0.00038025,0.000529
11:11:48,30-Sep-21,0.0245,0.023,0.00060025,0.000529
11:11:48,30-Sep-21,0.0245,0.023,0.00060025,0.000529
11:11:48,30-Sep-21,0.0245,0.023,0.00060025,0.000529
11:11:48,30-Sep-21,0.0245,0.023,0.00060025,0.000529
11:11:48,30-Sep-21,0.0245,0.023,0.00060025,0.000529
11:11:48,30-Sep-21,0.0245,0.023,0.00060025,0.000529
11:11:48,30-Sep-21,0.0245,0.023,0.00060025,0.000529
11:11:48,30-Sep-21,0.0245,0.023,0.00060025,0.000529
11:11:48,30-Sep-21,0.0245,0.023,0.00060025,0.000529
11:11:48,30-Sep-21,0.0245,0.023,0.00060025,0.000529
11:11:48,30-Sep-21,0.0245,0.023,0.00060025,0.000529
11:11:48,30-Sep-21,0.0245,0.023,0.00060025,0.000529
11:11:49,30-Sep-21,0.0245,0.023,0.00060025,0.000529
11:11:49,30-Sep-21,0.0245,0.023,0.00060025,0.000529
11:11:49,30-Sep-21,0.0245,0.023,0.00060025,0.000529
11:11:49,30-Sep-21,0.0245,0.023,0.00060025,0.000529
11:11:49,30-Sep-21,0.0245,0.023,0.00060025,0.000529
11:11:49,30-Sep-21,0.0195,0.023,0.00038025,0.000529
11:11:49,30-Sep-21,0.0195,0.023,0.00038025,0.000529
11:11:49,30-Sep-21,0.0195,0.023,0.00038025,0.000529
11:11:49,30-Sep-21,0.0195,0.023,0.00038025,0.000529
11:11:49,30-Sep-21,0.0195,0.023,0.00038025,0.000529
11:11:49,30-Sep-21,0.0195,0.023,0.00038025,0.000529
11:11:49,30-Sep-21,0.0245,0.023,0.00060025,0.000529
11:11:49,30-Sep-21,0.0245,0.024,0.00060025,0.000576
11:11:49,30-Sep-21,0.0245,0.024,0.00060025,0.000576
11:11:49,30-Sep-21,0.0245,0.024,0.00060025,0.000576
11:11:49,30-Sep-21,0.0245,0.024,0.00060025,0.000576
11:11:49,30-Sep-21,0.0245,0.024,0.00060025,0.000576
11:11:49,30-Sep-21,0.0245,0.024,0.00060025,0.000576
11:11:49,30-Sep-21,0.0245,0.024,0.00060025,0.000576
11:11:49,30-Sep-21,0.0245,0.024,0.00060025,0.000576
11:11:49,30-Sep-21,0.0245,0.024,0.00060025,0.000576
11:11:49,30-Sep-21,0.0245,0.024,0.00060025,0.000576
11:11:49,30-Sep-21,0.0245,0.024,0.00060025,0.000576
11:11:49,30-Sep-21,0.0245,0.024,0.00060025,0.000576
11:11:49,30-Sep-21,0.0245,0.024,0.00060025,0.000576
11:11:49,30-Sep-21,0.0245,0.024,0.00060025,0.000576
11:11:49,30-Sep-21,0.0245,0.024,0.00060025,0.000576
11:11:49,30-Sep-21,0.0245,0.024,0.00060025,0.000576
11:11:49,30-Sep-21,0.0245,0.024,0.00060025,0.000576
11:11:49,30-Sep-21,0.0245,0.024,0.00060025,0.000576
11:11:49,30-Sep-21,0.0245,0.024,0.00060025,0.000576
11:11:49,30-Sep-21,0.0245,0.024,0.00060025,0.000576
11:11:49,30-Sep-21,0.0245,0.024,0.00060025,0.000576
11:11:49,30-Sep-21,0.0245,0.024,0.00060025,0.000576
11:11:49,30-Sep-21,0.0245,0.024,0.00060025,0.000576
11:11:49,30-Sep-21,0.0245,0.024,0.00060025,0.000576
11:11:49,30-Sep-21,0.0245,0.024,0.00060025,0.000576
11:11:49,30-Sep-21,0.0245,0.024,0.00060025,0.000576
11:11:49,30-Sep-21,0.0245,0.024,0.00060025,0.000576
11:11:49,30-Sep-21,0.0245,0.024,0.00060025,0.000576
11:11:49,30-Sep-21,0.0245,0.024,0.00060025,0.000576
11:11:49,30-Sep-21,0.0245,0.024,0.00060025,0.000576
11:11:49,30-Sep-21,0.0245,0.024,0.00060025,0.000576
11:11:49,30-Sep-21,0.0245,0.024,0.00060025,0.000576
11:11:49,30-Sep-21,0.0245,0.024,0.00060025,0.000576
11:11:49,30-Sep-21,0.0195,0.024,0.00038025,0.000576
11:11:49,30-Sep-21,0.0195,0.024,0.00038025,0.000576
11:11:49,30-Sep-21,0.0195,0.024,0.00038025,0.000576
11:11:49,30-Sep-21,0.0245,0.024,0.00060025,0.000576
11:11:49,30-Sep-21,0.0245,0.024,0.00060025,0.000576
11:11:49,30-Sep-21,0.0245,0.023,0.00060025,0.000529
11:11:49,30-Sep-21,0.0245,0.023,0.00060025,0.000529
11:11:49,30-Sep-21,0.0245,0.023,0.00060025,0.000529
11:11:49,30-Sep-21,0.0195,0.023,0.00038025,0.000529
11:11:49,30-Sep-21,0.0195,0.023,0.00038025,0.000529
11:11:49,30-Sep-21,0.0195,0.023,0.00038025,0.000529
11:11:49,30-Sep-21,0.0245,0.023,0.00060025,0.000529
11:11:49,30-Sep-21,0.0245,0.023,0.00060025,0.000529
11:11:49,30-Sep-21,0.0245,0.023,0.00060025,0.000529
11:11:49,30-Sep-21,0.0245,0.023,0.00060025,0.000529
11:11:49,30-Sep-21,0.0245,0.023,0.00060025,0.000529
11:11:49,30-Sep-21,0.0245,0.023,0.00060025,0.000529
11:11:49,30-Sep-21,0.0245,0.023,0.00060025,0.000529
11:11:49,30-Sep-21,0.0245,0.023,0.00060025,0.000529
11:11:49,30-Sep-21,0.0245,0.023,0.00060025,0.000529
11:11:49,30-Sep-21,0.0245,0.022,0.00060025,0.000484
11:11:49,30-Sep-21,0.0245,0.022,0.00060025,0.000484
11:11:49,30-Sep-21,0.0195,0.022,0.00038025,0.000484
11:11:49,30-Sep-21,0.0195,0.022,0.00038025,0.000484
11:11:49,30-Sep-21,0.0195,0.022,0.00038025,0.000484
11:11:49,30-Sep-21,0.0195,0.022,0.00038025,0.000484
11:11:49,30-Sep-21,0.0195,0.022,0.00038025,0.000484
11:11:49,30-Sep-21,0.0195,0.022,0.00038025,0.000484
11:11:49,30-Sep-21,0.0245,0.022,0.00060025,0.000484
11:11:49,30-Sep-21,0.0245,0.021,0.00060025,0.000441
11:11:49,30-Sep-21,0.0245,0.021,0.00060025,0.000441
11:11:49,30-Sep-21,0.0245,0.021,0.00060025,0.000441
11:11:49,30-Sep-21,0.0245,0.021,0.00060025,0.000441
11:11:49,30-Sep-21,0.0195,0.021,0.00038025,0.000441
11:11:49,30-Sep-21,0.0195,0.021,0.00038025,0.000441
11:11:49,30-Sep-21,0.0195,0.021,0.00038025,0.000441
11:11:49,30-Sep-21,0.0195,0.021,0.00038025,0.000441
11:11:49,30-Sep-21,0.0195,0.02,0.00038025,0.0004
11:11:49,30-Sep-21,0.0195,0.02,0.00038025,0.0004
11:11:49,30-Sep-21,0.0195,0.02,0.00038025,0.0004
11:11:49,30-Sep-21,0.0195,0.02,0.00038025,0.0004
11:11:49,30-Sep-21,0.0195,0.02,0.00038025,0.0004
11:11:49,30-Sep-21,0.0195,0.02,0.00038025,0.0004
11:11:49,30-Sep-21,0.0195,0.02,0.00038025,0.0004
11:11:49,30-Sep-21,0.0195,0.02,0.00038025,0.0004
11:11:49,30-Sep-21,0.0195,0.02,0.00038025,0.0004
11:11:49,30-Sep-21,0.0195,0.02,0.00038025,0.0004
11:11:49,30-Sep-21,0.0195,0.02,0.00038025,0.0004
11:11:49,30-Sep-21,0.0195,0.02,0.00038025,0.0004
11:11:49,30-Sep-21,0.0195,0.02,0.00038025,0.0004
11:11:49,30-Sep-21,0.0195,0.02,0.00038025,0.0004
11:11:49,30-Sep-21,0.0195,0.019,0.00038025,0.000361
11:11:49,30-Sep-21,0.0195,0.019,0.00038025,0.000361
11:11:49,30-Sep-21,0.0195,0.019,0.00038025,0.000361
11:11:49,30-Sep-21,0.0195,0.019,0.00038025,0.000361
11:11:49,30-Sep-21,0.0195,0.019,0.00038025,0.000361
11:11:49,30-Sep-21,0.0195,0.019,0.00038025,0.000361
11:11:49,30-Sep-21,0.0195,0.019,0.00038025,0.000361
11:11:49,30-Sep-21,0.0195,0.019,0.00038025,0.000361
11:11:49,30-Sep-21,0.0195,0.019,0.00038025,0.000361
11:11:49,30-Sep-21,0.0195,0.019,0.00038025,0.000361
11:11:49,30-Sep-21,0.0195,0.019,0.00038025,0.000361
11:11:49,30-Sep-21,0.0195,0.019,0.00038025,0.000361
11:11:49,30-Sep-21,0.0195,0.019,0.00038025,0.000361
11:11:49,30-Sep-21,0.0195,0.02,0.00038025,0.0004
11:11:49,30-Sep-21,0.0195,0.02,0.00038025,0.0004
11:11:49,30-Sep-21,0.0195,0.02,0.00038025,0.0004
11:11:49,30-Sep-21,0.0195,0.02,0.00038025,0.0004
11:11:49,30-Sep-21,0.0195,0.02,0.00038025,0.0004
11:11:49,30-Sep-21,0.0195,0.02,0.00038025,0.0004
11:11:49,30-Sep-21,0.0195,0.02,0.00038025,0.0004
11:11:49,30-Sep-21,0.0195,0.02,0.00038025,0.0004
11:11:49,30-Sep-21,0.0195,0.02,0.00038025,0.0004
11:11:49,30-Sep-21,0.0195,0.02,0.00038025,0.0004
11:11:49,30-Sep-21,0.0195,0.02,0.00038025,0.0004
11:11:49,30-Sep-21,0.0195,0.02,0.00038025,0.0004
11:11:49,30-Sep-21,0.0195,0.02,0.00038025,0.0004
11:11:49,30-Sep-21,0.0195,0.02,0.00038025,0.0004
11:11:49,30-Sep-21,0.0195,0.02,0.00038025,0.0004
11:11:49,30-Sep-21,0.0195,0.02,0.00038025,0.0004
11:11:49,30-Sep-21,0.0195,0.02,0.00038025,0.0004
11:11:49,30-Sep-21,0.0195,0.02,0.00038025,0.0004
11:11:49,30-Sep-21,0.0195,0.02,0.00038025,0.0004
11:11:49,30-Sep-21,0.0195,0.02,0.00038025,0.0004
11:11:49,30-Sep-21,0.0195,0.02,0.00038025,0.0004
11:11:49,30-Sep-21,0.0195,0.019,0.00038025,0.000361
11:11:49,30-Sep-21,0.0195,0.019,0.00038025,0.000361
11:11:49,30-Sep-21,0.0195,0.019,0.00038025,0.000361
11:11:49,30-Sep-21,0.0195,0.019,0.00038025,0.000361
11:11:49,30-Sep-21,0.0195,0.019,0.00038025,0.000361
11:11:49,30-Sep-21,0.0195,0.019,0.00038025,0.000361
11:11:49,30-Sep-21,0.0195,0.019,0.00038025,0.000361
11:11:49,30-Sep-21,0.0195,0.019,0.00038025,0.000361
11:11:49,30-Sep-21,0.0195,0.019,0.00038025,0.000361
11:11:49,30-Sep-21,0.0195,0.018,0.00038025,0.000324
11:11:49,30-Sep-21,0.0195,0.018,0.00038025,0.000324
11:11:49,30-Sep-21,0.0195,0.018,0.00038025,0.000324
11:11:49,30-Sep-21,0.0195,0.018,0.00038025,0.000324
11:11:49,30-Sep-21,0.0195,0.018,0.00038025,0.000324
11:11:49,30-Sep-21,0.0195,0.018,0.00038025,0.000324
11:11:49,30-Sep-21,0.0195,0.017,0.00038025,0.000289
11:11:49,30-Sep-21,0.0195,0.017,0.00038025,0.000289
11:11:49,30-Sep-21,0.0195,0.017,0.00038025,0.000289
11:11:49,30-Sep-21,0.0145,0.017,0.00021025,0.000289
11:11:49,30-Sep-21,0.0145,0.017,0.00021025,0.000289
11:11:49,30-Sep-21,0.0145,0.017,0.00021025,0.000289
11:11:49,30-Sep-21,0.0145,0.016,0.00021025,0.000256
11:11:49,30-Sep-21,0.0145,0.016,0.00021025,0.000256
11:11:49,30-Sep-21,0.0145,0.016,0.00021025,0.000256
11:11:49,30-Sep-21,0.0145,0.016,0.00021025,0.000256
11:11:49,30-Sep-21,0.0145,0.016,0.00021025,0.000256
11:11:49,30-Sep-21,0.0145,0.016,0.00021025,0.000256
11:11:49,30-Sep-21,0.0145,0.015,0.00021025,0.000225
11:11:49,30-Sep-21,0.0145,0.015,0.00021025,0.000225
11:11:49,30-Sep-21,0.0145,0.015,0.00021025,0.000225
11:11:49,30-Sep-21,0.0145,0.015,0.00021025,0.000225
11:11:49,30-Sep-21,0.0145,0.015,0.00021025,0.000225
11:11:49,30-Sep-21,0.0145,0.015,0.00021025,0.000225
11:11:49,30-Sep-21,0.0145,0.015,0.00021025,0.000225
11:11:49,30-Sep-21,0.0145,0.015,0.00021025,0.000225
11:11:49,30-Sep-21,0.0145,0.015,0.00021025,0.000225
11:11:49,30-Sep-21,0.0145,0.014,0.00021025,0.000196
11:11:49,30-Sep-21,0.0145,0.014,0.00021025,0.000196
11:11:49,30-Sep-21,0.0145,0.014,0.00021025,0.000196
11:11:50,30-Sep-21,0.0145,0.014,0.00021025,0.000196
11:11:50,30-Sep-21,0.0145,0.014,0.00021025,0.000196
11:11:50,30-Sep-21,0.0145,0.014,0.00021025,0.000196
11:11:50,30-Sep-21,0.0145,0.014,0.00021025,0.000196
11:11:50,30-Sep-21,0.0145,0.014,0.00021025,0.000196
11:11:50,30-Sep-21,0.0145,0.014,0.00021025,0.000196
11:11:50,30-Sep-21,0.0145,0.014,0.00021025,0.000196
11:11:50,30-Sep-21,0.0145,0.014,0.00021025,0.000196
11:11:50,30-Sep-21,0.0145,0.014,0.00021025,0.000196
11:11:50,30-Sep-21,0.0145,0.014,0.00021025,0.000196
11:11:50,30-Sep-21,0.0145,0.014,0.00021025,0.000196
11:11:50,30-Sep-21,0.0145,0.014,0.00021025,0.000196
11:11:50,30-Sep-21,0.0145,0.014,0.00021025,0.000196
11:11:50,30-Sep-21,0.0145,0.014,0.00021025,0.000196
11:11:50,30-Sep-21,0.0145,0.014,0.00021025,0.000196
11:11:50,30-Sep-21,0.0145,0.014,0.00021025,0.000196
11:11:50,30-Sep-21,0.0145,0.014,0.00021025,0.000196
11:11:50,30-Sep-21,0.0145,0.014,0.00021025,0.000196
11:11:50,30-Sep-21,0.0145,0.014,0.00021025,0.000196
11:11:50,30-Sep-21,0.0145,0.014,0.00021025,0.000196
11:11:50,30-Sep-21,0.0145,0.014,0.00021025,0.000196
11:11:50,30-Sep-21,0.0145,0.014,0.00021025,0.000196
11:11:50,30-Sep-21,0.0145,0.014,0.00021025,0.000196
11:11:50,30-Sep-21,0.0145,0.014,0.00021025,0.000196
11:11:50,30-Sep-21,0.0145,0.014,0.00021025,0.000196
11:11:50,30-Sep-21,0.0145,0.014,0.00021025,0.000196
11:11:50,30-Sep-21,0.0145,0.014,0.00021025,0.000196
11:11:50,30-Sep-21,0.0145,0.014,0.00021025,0.000196
11:11:50,30-Sep-21,0.0145,0.014,0.00021025,0.000196
11:11:50,30-Sep-21,0.0145,0.014,0.00021025,0.000196
11:11:50,30-Sep-21,0.0145,0.014,0.00021025,0.000196
11:11:50,30-Sep-21,0.0145,0.014,0.00021025,0.000196
11:11:50,30-Sep-21,0.0145,0.014,0.00021025,0.000196
11:11:50,30-Sep-21,0.0145,0.014,0.00021025,0.000196
11:11:50,30-Sep-21,0.0145,0.014,0.00021025,0.000196
11:11:50,30-Sep-21,0.01,0.014,0.0001,0.000196
11:11:50,30-Sep-21,0.01,0.014,0.0001,0.000196
11:11:50,30-Sep-21,0.0145,0.014,0.00021025,0.000196
11:11:50,30-Sep-21,0.0145,0.014,0.00021025,0.000196
11:11:50,30-Sep-21,0.0145,0.014,0.00021025,0.000196
11:11:50,30-Sep-21,0.0145,0.014,0.00021025,0.000196
11:11:50,30-Sep-21,0.0145,0.014,0.00021025,0.000196
11:11:50,30-Sep-21,0.0145,0.014,0.00021025,0.000196
11:11:50,30-Sep-21,0.0145,0.014,0.00021025,0.000196
11:11:50,30-Sep-21,0.0145,0.014,0.00021025,0.000196
11:11:50,30-Sep-21,0.0145,0.014,0.00021025,0.000196
11:11:50,30-Sep-21,0.0145,0.014,0.00021025,0.000196
11:11:50,30-Sep-21,0.0145,0.014,0.00021025,0.000196
11:11:50,30-Sep-21,0.0145,0.014,0.00021025,0.000196
11:11:50,30-Sep-21,0.0145,0.014,0.00021025,0.000196
11:11:50,30-Sep-21,0.0145,0.014,0.00021025,0.000196
11:11:50,30-Sep-21,0.0145,0.014,0.00021025,0.000196
11:11:50,30-Sep-21,0.0145,0.014,0.00021025,0.000196
11:11:50,30-Sep-21,0.0145,0.014,0.00021025,0.000196
11:11:50,30-Sep-21,0.0145,0.014,0.00021025,0.000196
11:11:50,30-Sep-21,0.0145,0.014,0.00021025,0.000196
11:11:50,30-Sep-21,0.0145,0.014,0.00021025,0.000196
11:11:50,30-Sep-21,0.0145,0.014,0.00021025,0.000196
11:11:50,30-Sep-21,0.0145,0.014,0.00021025,0.000196
11:11:50,30-Sep-21,0.0145,0.014,0.00021025,0.000196
11:11:50,30-Sep-21,0.0145,0.014,0.00021025,0.000196
11:11:50,30-Sep-21,0.0145,0.014,0.00021025,0.000196
11:11:50,30-Sep-21,0.0145,0.014,0.00021025,0.000196
11:11:50,30-Sep-21,0.0145,0.014,0.00021025,0.000196
11:11:50,30-Sep-21,0.0145,0.014,0.00021025,0.000196
11:11:50,30-Sep-21,0.01,0.014,0.0001,0.000196
11:11:50,30-Sep-21,0.01,0.014,0.0001,0.000196
11:11:50,30-Sep-21,0.01,0.014,0.0001,0.000196
11:11:50,30-Sep-21,0.01,0.014,0.0001,0.000196
11:11:50,30-Sep-21,0.01,0.014,0.0001,0.000196
11:11:50,30-Sep-21,0.0145,0.014,0.00021025,0.000196
11:11:50,30-Sep-21,0.0145,0.014,0.00021025,0.000196
11:11:50,30-Sep-21,0.0145,0.014,0.00021025,0.000196
11:11:50,30-Sep-21,0.0145,0.014,0.00021025,0.000196
11:11:50,30-Sep-21,0.0145,0.014,0.00021025,0.000196
11:11:50,30-Sep-21,0.0145,0.014,0.00021025,0.000196
11:11:50,30-Sep-21,0.0145,0.014,0.00021025,0.000196
11:11:50,30-Sep-21,0.0145,0.014,0.00021025,0.000196
11:11:50,30-Sep-21,0.0145,0.014,0.00021025,0.000196
11:11:50,30-Sep-21,0.0145,0.014,0.00021025,0.000196
11:11:50,30-Sep-21,0.0145,0.014,0.00021025,0.000196
11:11:50,30-Sep-21,0.0145,0.014,0.00021025,0.000196
11:11:50,30-Sep-21,0.0145,0.014,0.00021025,0.000196
11:11:50,30-Sep-21,0.0145,0.014,0.00021025,0.000196
11:11:50,30-Sep-21,0.0145,0.014,0.00021025,0.000196
11:11:50,30-Sep-21,0.0145,0.014,0.00021025,0.000196
11:11:50,30-Sep-21,0.0145,0.014,0.00021025,0.000196
11:11:50,30-Sep-21,0.0145,0.014,0.00021025,0.000196
11:11:50,30-Sep-21,0.0145,0.014,0.00021025,0.000196
11:11:50,30-Sep-21,0.0145,0.014,0.00021025,0.000196
11:11:50,30-Sep-21,0.0145,0.014,0.00021025,0.000196
11:11:50,30-Sep-21,0.0145,0.014,0.00021025,0.000196
11:11:50,30-Sep-21,0.0145,0.014,0.00021025,0.000196
11:11:50,30-Sep-21,0.0145,0.014,0.00021025,0.000196
11:11:50,30-Sep-21,0.0145,0.014,0.00021025,0.000196
11:11:50,30-Sep-21,0.0145,0.014,0.00021025,0.000196
11:11:50,30-Sep-21,0.0145,0.014,0.00021025,0.000196
11:11:50,30-Sep-21,0.0145,0.014,0.00021025,0.000196
11:11:50,30-Sep-21,0.0145,0.014,0.00021025,0.000196
11:11:50,30-Sep-21,0.0145,0.013,0.00021025,0.000169
11:11:50,30-Sep-21,0.0145,0.013,0.00021025,0.000169
11:11:50,30-Sep-21,0.01,0.013,0.0001,0.000169
11:11:50,30-Sep-21,0.01,0.013,0.0001,0.000169
11:11:50,30-Sep-21,0.01,0.013,0.0001,0.000169
11:11:50,30-Sep-21,0.01,0.013,0.0001,0.000169
11:11:50,30-Sep-21,0.01,0.013,0.0001,0.000169
11:11:50,30-Sep-21,0.01,0.013,0.0001,0.000169
11:11:50,30-Sep-21,0.01,0.013,0.0001,0.000169
11:11:50,30-Sep-21,0.0145,0.013,0.00021025,0.000169
11:11:50,30-Sep-21,0.0145,0.014,0.00021025,0.000196
11:11:50,30-Sep-21,0.0145,0.014,0.00021025,0.000196
11:11:50,30-Sep-21,0.0145,0.014,0.00021025,0.000196
11:11:50,30-Sep-21,0.0145,0.014,0.00021025,0.000196
11:11:50,30-Sep-21,0.0145,0.014,0.00021025,0.000196
11:11:50,30-Sep-21,0.0145,0.014,0.00021025,0.000196
11:11:50,30-Sep-21,0.0145,0.014,0.00021025,0.000196
11:11:50,30-Sep-21,0.0145,0.014,0.00021025,0.000196
11:11:50,30-Sep-21,0.0145,0.014,0.00021025,0.000196
11:11:50,30-Sep-21,0.0145,0.014,0.00021025,0.000196
11:11:50,30-Sep-21,0.0145,0.014,0.00021025,0.000196
11:11:50,30-Sep-21,0.0145,0.014,0.00021025,0.000196
11:11:50,30-Sep-21,0.0145,0.014,0.00021025,0.000196
11:11:50,30-Sep-21,0.0145,0.014,0.00021025,0.000196
11:11:50,30-Sep-21,0.0145,0.014,0.00021025,0.000196
11:11:50,30-Sep-21,0.0145,0.014,0.00021025,0.000196
11:11:50,30-Sep-21,0.0145,0.014,0.00021025,0.000196
11:11:50,30-Sep-21,0.0145,0.014,0.00021025,0.000196
11:11:50,30-Sep-21,0.0145,0.014,0.00021025,0.000196
11:11:50,30-Sep-21,0.0145,0.014,0.00021025,0.000196
11:11:50,30-Sep-21,0.0145,0.014,0.00021025,0.000196
11:11:50,30-Sep-21,0.0145,0.014,0.00021025,0.000196
11:11:50,30-Sep-21,0.0145,0.014,0.00021025,0.000196
11:11:50,30-Sep-21,0.0145,0.014,0.00021025,0.000196
11:11:50,30-Sep-21,0.0145,0.014,0.00021025,0.000196
11:11:50,30-Sep-21,0.0145,0.014,0.00021025,0.000196
11:11:50,30-Sep-21,0.0145,0.014,0.00021025,0.000196
11:11:50,30-Sep-21,0.0145,0.014,0.00021025,0.000196
11:11:50,30-Sep-21,0.0145,0.014,0.00021025,0.000196
11:11:50,30-Sep-21,0.0145,0.014,0.00021025,0.000196
11:11:50,30-Sep-21,0.0145,0.014,0.00021025,0.000196
11:11:50,30-Sep-21,0.0145,0.014,0.00021025,0.000196
11:11:50,30-Sep-21,0.0145,0.014,0.00021025,0.000196
11:11:50,30-Sep-21,0.0145,0.014,0.00021025,0.000196
11:11:50,30-Sep-21,0.0145,0.014,0.00021025,0.000196
11:11:50,30-Sep-21,0.0145,0.014,0.00021025,0.000196
11:11:50,30-Sep-21,0.0145,0.014,0.00021025,0.000196
11:11:50,30-Sep-21,0.0145,0.014,0.00021025,0.000196
11:11:50,30-Sep-21,0.0145,0.014,0.00021025,0.000196
11:11:50,30-Sep-21,0.0145,0.014,0.00021025,0.000196
11:11:50,30-Sep-21,0.0145,0.014,0.00021025,0.000196
11:11:50,30-Sep-21,0.0145,0.014,0.00021025,0.000196
11:11:50,30-Sep-21,0.0145,0.014,0.00021025,0.000196
11:11:50,30-Sep-21,0.0145,0.014,0.00021025,0.000196
11:11:50,30-Sep-21,0.0145,0.014,0.00021025,0.000196
11:11:50,30-Sep-21,0.0145,0.014,0.00021025,0.000196
11:11:50,30-Sep-21,0.0145,0.014,0.00021025,0.000196
11:11:50,30-Sep-21,0.0145,0.014,0.00021025,0.000196
11:11:50,30-Sep-21,0.01,0.014,0.0001,0.000196
11:11:50,30-Sep-21,0.01,0.014,0.0001,0.000196
11:11:50,30-Sep-21,0.0145,0.014,0.00021025,0.000196
11:11:50,30-Sep-21,0.0145,0.014,0.00021025,0.000196
11:11:50,30-Sep-21,0.0145,0.014,0.00021025,0.000196
11:11:50,30-Sep-21,0.0145,0.014,0.00021025,0.000196
11:11:50,30-Sep-21,0.0145,0.014,0.00021025,0.000196
11:11:50,30-Sep-21,0.0145,0.014,0.00021025,0.000196
11:11:50,30-Sep-21,0.0145,0.014,0.00021025,0.000196
11:11:50,30-Sep-21,0.0145,0.014,0.00021025,0.000196
11:11:50,30-Sep-21,0.0145,0.014,0.00021025,0.000196
11:11:51,30-Sep-21,0.0145,0.014,0.00021025,0.000196
11:11:51,30-Sep-21,0.0145,0.014,0.00021025,0.000196
11:11:51,30-Sep-21,0.0145,0.014,0.00021025,0.000196
11:11:51,30-Sep-21,0.0145,0.014,0.00021025,0.000196
11:11:51,30-Sep-21,0.0145,0.014,0.00021025,0.000196
11:11:51,30-Sep-21,0.0145,0.014,0.00021025,0.000196
11:11:51,30-Sep-21,0.0145,0.014,0.00021025,0.000196
11:11:51,30-Sep-21,0.0145,0.014,0.00021025,0.000196
11:11:51,30-Sep-21,0.0145,0.014,0.00021025,0.000196
11:11:51,30-Sep-21,0.0145,0.014,0.00021025,0.000196
11:11:51,30-Sep-21,0.0145,0.014,0.00021025,0.000196
11:11:51,30-Sep-21,0.0145,0.014,0.00021025,0.000196
11:11:51,30-Sep-21,0.0145,0.014,0.00021025,0.000196
11:11:51,30-Sep-21,0.0145,0.014,0.00021025,0.000196
11:11:51,30-Sep-21,0.0145,0.014,0.00021025,0.000196
11:11:51,30-Sep-21,0.0145,0.014,0.00021025,0.000196
11:11:51,30-Sep-21,0.0145,0.013,0.00021025,0.000169
11:11:51,30-Sep-21,0.01,0.013,0.0001,0.000169
11:11:51,30-Sep-21,0.01,0.013,0.0001,0.000169
11:11:51,30-Sep-21,0.0145,0.013,0.00021025,0.000169
11:11:51,30-Sep-21,0.0145,0.013,0.00021025,0.000169
11:11:51,30-Sep-21,0.0145,0.013,0.00021025,0.000169
11:11:51,30-Sep-21,0.0145,0.013,0.00021025,0.000169
11:11:51,30-Sep-21,0.0145,0.012,0.00021025,0.000144
11:11:51,30-Sep-21,0.0145,0.012,0.00021025,0.000144
11:11:51,30-Sep-21,0.0145,0.012,0.00021025,0.000144
11:11:51,30-Sep-21,0.0145,0.012,0.00021025,0.000144
11:11:51,30-Sep-21,0.01,0.012,0.0001,0.000144
11:11:51,30-Sep-21,0.01,0.012,0.0001,0.000144
11:11:51,30-Sep-21,0.01,0.011,0.0001,0.000121
11:11:51,30-Sep-21,0.01,0.011,0.0001,0.000121
11:11:51,30-Sep-21,0.01,0.011,0.0001,0.000121
11:11:51,30-Sep-21,0.01,0.011,0.0001,0.000121
11:11:51,30-Sep-21,0.01,0.011,0.0001,0.000121
11:11:51,30-Sep-21,0.01,0.011,0.0001,0.000121
11:11:51,30-Sep-21,0.01,0.011,0.0001,0.000121
11:11:51,30-Sep-21,0.01,0.011,0.0001,0.000121
11:11:51,30-Sep-21,0.01,0.01,0.0001,0.0001
11:11:51,30-Sep-21,0.01,0.01,0.0001,0.0001
11:11:51,30-Sep-21,0.01,0.01,0.0001,0.0001
11:11:51,30-Sep-21,0.01,0.01,0.0001,0.0001
11:11:51,30-Sep-21,0.01,0.01,0.0001,0.0001
11:11:51,30-Sep-21,0.01,0.01,0.0001,0.0001
11:11:51,30-Sep-21,0.01,0.01,0.0001,0.0001
11:11:51,30-Sep-21,0.01,0.01,0.0001,0.0001
11:11:51,30-Sep-21,0.01,0.01,0.0001,0.0001
11:11:51,30-Sep-21,0.01,0.01,0.0001,0.0001
11:11:51,30-Sep-21,0.01,0.01,0.0001,0.0001
11:11:51,30-Sep-21,0.01,0.01,0.0001,0.0001
11:11:51,30-Sep-21,0.01,0.01,0.0001,0.0001
11:11:51,30-Sep-21,0.01,0.011,0.0001,0.000121
11:11:51,30-Sep-21,0.01,0.011,0.0001,0.000121
11:11:51,30-Sep-21,0.01,0.011,0.0001,0.000121
11:11:51,30-Sep-21,0.01,0.011,0.0001,0.000121
11:11:51,30-Sep-21,0.01,0.011,0.0001,0.000121
11:11:51,30-Sep-21,0.01,0.011,0.0001,0.000121
11:11:51,30-Sep-21,0.01,0.011,0.0001,0.000121
11:11:51,30-Sep-21,0.01,0.011,0.0001,0.000121
11:11:51,30-Sep-21,0.01,0.011,0.0001,0.000121
11:11:51,30-Sep-21,0.01,0.012,0.0001,0.000144
11:11:51,30-Sep-21,0.01,0.012,0.0001,0.000144
11:11:51,30-Sep-21,0.0145,0.012,0.00021025,0.000144
11:11:51,30-Sep-21,0.0145,0.012,0.00021025,0.000144
11:11:51,30-Sep-21,0.0145,0.012,0.00021025,0.000144
11:11:51,30-Sep-21,0.0145,0.012,0.00021025,0.000144
11:11:51,30-Sep-21,0.0145,0.012,0.00021025,0.000144
11:11:51,30-Sep-21,0.0145,0.012,0.00021025,0.000144
11:11:51,30-Sep-21,0.0145,0.012,0.00021025,0.000144
11:11:51,30-Sep-21,0.0145,0.013,0.00021025,0.000169
11:11:51,30-Sep-21,0.0145,0.013,0.00021025,0.000169
11:11:51,30-Sep-21,0.01,0.013,0.0001,0.000169
11:11:51,30-Sep-21,0.01,0.013,0.0001,0.000169
11:11:51,30-Sep-21,0.0145,0.013,0.00021025,0.000169
11:11:51,30-Sep-21,0.0145,0.013,0.00021025,0.000169
11:11:51,30-Sep-21,0.0145,0.013,0.00021025,0.000169
11:11:51,30-Sep-21,0.0145,0.013,0.00021025,0.000169
11:11:51,30-Sep-21,0.0145,0.013,0.00021025,0.000169
11:11:51,30-Sep-21,0.0145,0.013,0.00021025,0.000169
11:11:51,30-Sep-21,0.0145,0.013,0.00021025,0.000169
11:11:51,30-Sep-21,0.0145,0.013,0.00021025,0.000169
11:11:51,30-Sep-21,0.01,0.013,0.0001,0.000169
11:11:51,30-Sep-21,0.01,0.013,0.0001,0.000169
11:11:51,30-Sep-21,0.01,0.013,0.0001,0.000169
11:11:51,30-Sep-21,0.01,0.013,0.0001,0.000169
11:11:51,30-Sep-21,0.0145,0.013,0.00021025,0.000169
11:11:51,30-Sep-21,0.0145,0.013,0.00021025,0.000169
11:11:51,30-Sep-21,0.0145,0.013,0.00021025,0.000169
11:11:51,30-Sep-21,0.0145,0.013,0.00021025,0.000169
11:11:51,30-Sep-21,0.0145,0.013,0.00021025,0.000169
11:11:51,30-Sep-21,0.01,0.013,0.0001,0.000169
11:11:51,30-Sep-21,0.01,0.013,0.0001,0.000169
11:11:51,30-Sep-21,0.01,0.013,0.0001,0.000169
11:11:51,30-Sep-21,0.01,0.013,0.0001,0.000169
11:11:51,30-Sep-21,0.01,0.013,0.0001,0.000169
11:11:51,30-Sep-21,0.01,0.013,0.0001,0.000169
11:11:51,30-Sep-21,0.01,0.013,0.0001,0.000169
11:11:51,30-Sep-21,0.0145,0.013,0.00021025,0.000169
11:11:51,30-Sep-21,0.0145,0.013,0.00021025,0.000169
11:11:51,30-Sep-21,0.0145,0.013,0.00021025,0.000169
11:11:51,30-Sep-21,0.0145,0.013,0.00021025,0.000169
11:11:51,30-Sep-21,0.0145,0.014,0.00021025,0.000196
11:11:51,30-Sep-21,0.0145,0.014,0.00021025,0.000196
11:11:51,30-Sep-21,0.0145,0.014,0.00021025,0.000196
11:11:51,30-Sep-21,0.0145,0.014,0.00021025,0.000196
11:11:51,30-Sep-21,0.0145,0.014,0.00021025,0.000196
11:11:51,30-Sep-21,0.0145,0.014,0.00021025,0.000196
11:11:51,30-Sep-21,0.0145,0.014,0.00021025,0.000196
11:11:51,30-Sep-21,0.0145,0.014,0.00021025,0.000196
11:11:51,30-Sep-21,0.0145,0.014,0.00021025,0.000196
11:11:51,30-Sep-21,0.0145,0.014,0.00021025,0.000196
11:11:51,30-Sep-21,0.0145,0.014,0.00021025,0.000196
11:11:51,30-Sep-21,0.0145,0.014,0.00021025,0.000196
11:11:51,30-Sep-21,0.0145,0.014,0.00021025,0.000196
11:11:51,30-Sep-21,0.0145,0.014,0.00021025,0.000196
11:11:51,30-Sep-21,0.0145,0.014,0.00021025,0.000196
11:11:51,30-Sep-21,0.0145,0.014,0.00021025,0.000196
11:11:51,30-Sep-21,0.0145,0.014,0.00021025,0.000196
11:11:51,30-Sep-21,0.0145,0.014,0.00021025,0.000196
11:11:51,30-Sep-21,0.0145,0.014,0.00021025,0.000196
11:11:51,30-Sep-21,0.0145,0.014,0.00021025,0.000196
11:11:51,30-Sep-21,0.0145,0.014,0.00021025,0.000196
11:11:51,30-Sep-21,0.0145,0.014,0.00021025,0.000196
11:11:51,30-Sep-21,0.0145,0.014,0.00021025,0.000196
11:11:51,30-Sep-21,0.0145,0.014,0.00021025,0.000196
11:11:51,30-Sep-21,0.0145,0.014,0.00021025,0.000196
11:11:51,30-Sep-21,0.0145,0.014,0.00021025,0.000196
11:11:51,30-Sep-21,0.01,0.014,0.0001,0.000196
11:11:51,30-Sep-21,0.01,0.014,0.0001,0.000196
11:11:51,30-Sep-21,0.0145,0.014,0.00021025,0.000196
11:11:51,30-Sep-21,0.0145,0.014,0.00021025,0.000196
11:11:51,30-Sep-21,0.0145,0.014,0.00021025,0.000196
11:11:51,30-Sep-21,0.0145,0.014,0.00021025,0.000196
11:11:51,30-Sep-21,0.0145,0.013,0.00021025,0.000169
11:11:51,30-Sep-21,0.01,0.013,0.0001,0.000169
11:11:52,30-Sep-21,0.01,0.013,0.0001,0.000169
11:11:52,30-Sep-21,0.0145,0.013,0.00021025,0.000169
11:11:52,30-Sep-21,0.0145,0.013,0.00021025,0.000169
11:11:52,30-Sep-21,0.0145,0.013,0.00021025,0.000169
11:11:52,30-Sep-21,0.01,0.013,0.0001,0.000169
11:11:52,30-Sep-21,0.01,0.013,0.0001,0.000169
11:11:52,30-Sep-21,0.01,0.013,0.0001,0.000169
11:11:52,30-Sep-21,0.0145,0.013,0.00021025,0.000169
11:11:52,30-Sep-21,0.0145,0.013,0.00021025,0.000169
11:11:52,30-Sep-21,0.0145,0.014,0.00021025,0.000196
11:11:52,30-Sep-21,0.0145,0.014,0.00021025,0.000196
11:11:52,30-Sep-21,0.0145,0.014,0.00021025,0.000196
11:11:52,30-Sep-21,0.0145,0.014,0.00021025,0.000196
11:11:52,30-Sep-21,0.0145,0.014,0.00021025,0.000196
11:11:52,30-Sep-21,0.0145,0.014,0.00021025,0.000196
11:11:52,30-Sep-21,0.0145,0.014,0.00021025,0.000196
11:11:52,30-Sep-21,0.0145,0.014,0.00021025,0.000196
11:11:52,30-Sep-21,0.0145,0.014,0.00021025,0.000196
11:11:52,30-Sep-21,0.0145,0.014,0.00021025,0.000196
11:11:52,30-Sep-21,0.0145,0.014,0.00021025,0.000196
11:11:52,30-Sep-21,0.0145,0.014,0.00021025,0.000196
11:11:52,30-Sep-21,0.01,0.014,0.0001,0.000196
11:11:52,30-Sep-21,0.01,0.014,0.0001,0.000196
11:11:52,30-Sep-21,0.0145,0.014,0.00021025,0.000196
11:11:52,30-Sep-21,0.0145,0.014,0.00021025,0.000196
11:11:52,30-Sep-21,0.0145,0.014,0.00021025,0.000196
11:11:52,30-Sep-21,0.0145,0.014,0.00021025,0.000196
11:11:52,30-Sep-21,0.0145,0.014,0.00021025,0.000196
11:11:52,30-Sep-21,0.0145,0.014,0.00021025,0.000196
11:11:52,30-Sep-21,0.0145,0.014,0.00021025,0.000196
11:11:52,30-Sep-21,0.0145,0.014,0.00021025,0.000196
11:11:52,30-Sep-21,0.0145,0.014,0.00021025,0.000196
11:11:52,30-Sep-21,0.0145,0.014,0.00021025,0.000196
11:11:52,30-Sep-21,0.0145,0.014,0.00021025,0.000196
11:11:52,30-Sep-21,0.0145,0.014,0.00021025,0.000196
11:11:52,30-Sep-21,0.0145,0.014,0.00021025,0.000196
11:11:52,30-Sep-21,0.0145,0.014,0.00021025,0.000196
11:11:52,30-Sep-21,0.0145,0.014,0.00021025,0.000196
11:11:52,30-Sep-21,0.0145,0.014,0.00021025,0.000196
11:11:52,30-Sep-21,0.0145,0.014,0.00021025,0.000196
11:11:52,30-Sep-21,0.0145,0.014,0.00021025,0.000196
11:11:52,30-Sep-21,0.0145,0.014,0.00021025,0.000196
11:11:52,30-Sep-21,0.0145,0.014,0.00021025,0.000196
11:11:52,30-Sep-21,0.0145,0.014,0.00021025,0.000196
11:11:52,30-Sep-21,0.0145,0.014,0.00021025,0.000196
11:11:52,30-Sep-21,0.0145,0.014,0.00021025,0.000196
11:11:52,30-Sep-21,0.0145,0.014,0.00021025,0.000196
11:11:52,30-Sep-21,0.0145,0.014,0.00021025,0.000196
11:11:52,30-Sep-21,0.0145,0.014,0.00021025,0.000196
11:11:52,30-Sep-21,0.0145,0.014,0.00021025,0.000196
11:11:52,30-Sep-21,0.0145,0.014,0.00021025,0.000196
11:11:52,30-Sep-21,0.0145,0.014,0.00021025,0.000196
11:11:52,30-Sep-21,0.0145,0.014,0.00021025,0.000196
11:11:52,30-Sep-21,0.0145,0.013,0.00021025,0.000169
11:11:52,30-Sep-21,0.01,0.013,0.0001,0.000169
11:11:52,30-Sep-21,0.01,0.013,0.0001,0.000169
11:11:52,30-Sep-21,0.01,0.013,0.0001,0.000169
11:11:52,30-Sep-21,0.01,0.013,0.0001,0.000169
11:11:52,30-Sep-21,0.0145,0.013,0.00021025,0.000169
11:11:52,30-Sep-21,0.01,0.013,0.0001,0.000169
11:11:52,30-Sep-21,0.01,0.013,0.0001,0.000169
11:11:52,30-Sep-21,0.01,0.013,0.0001,0.000169
11:11:52,30-Sep-21,0.0145,0.013,0.00021025,0.000169
11:11:52,30-Sep-21,0.0145,0.013,0.00021025,0.000169
11:11:52,30-Sep-21,0.0145,0.013,0.00021025,0.000169
11:11:52,30-Sep-21,0.0145,0.013,0.00021025,0.000169
11:11:52,30-Sep-21,0.0145,0.013,0.00021025,0.000169
11:11:52,30-Sep-21,0.0145,0.013,0.00021025,0.000169
11:11:52,30-Sep-21,0.0145,0.013,0.00021025,0.000169
11:11:52,30-Sep-21,0.0145,0.013,0.00021025,0.000169
11:11:52,30-Sep-21,0.0145,0.013,0.00021025,0.000169
11:11:52,30-Sep-21,0.0145,0.013,0.00021025,0.000169
11:11:52,30-Sep-21,0.0145,0.013,0.00021025,0.000169
11:11:52,30-Sep-21,0.0145,0.013,0.00021025,0.000169
11:11:52,30-Sep-21,0.0145,0.013,0.00021025,0.000169
11:11:52,30-Sep-21,0.0145,0.013,0.00021025,0.000169
11:11:52,30-Sep-21,0.0145,0.013,0.00021025,0.000169
11:11:52,30-Sep-21,0.0145,0.013,0.00021025,0.000169
11:11:52,30-Sep-21,0.0145,0.013,0.00021025,0.000169
11:11:52,30-Sep-21,0.0145,0.013,0.00021025,0.000169
11:11:52,30-Sep-21,0.01,0.013,0.0001,0.000169
11:11:52,30-Sep-21,0.01,0.013,0.0001,0.000169
11:11:52,30-Sep-21,0.01,0.013,0.0001,0.000169
11:11:52,30-Sep-21,0.01,0.013,0.0001,0.000169
11:11:52,30-Sep-21,0.0145,0.014,0.00021025,0.000196
11:11:52,30-Sep-21,0.0145,0.014,0.00021025,0.000196
11:11:52,30-Sep-21,0.0145,0.014,0.00021025,0.000196
11:11:52,30-Sep-21,0.01,0.014,0.0001,0.000196
11:11:52,30-Sep-21,0.01,0.014,0.0001,0.000196
11:11:52,30-Sep-21,0.0145,0.014,0.00021025,0.000196
11:11:52,30-Sep-21,0.0145,0.014,0.00021025,0.000196
11:11:52,30-Sep-21,0.0145,0.014,0.00021025,0.000196
11:11:52,30-Sep-21,0.0145,0.014,0.00021025,0.000196
11:11:52,30-Sep-21,0.0145,0.014,0.00021025,0.000196
11:11:52,30-Sep-21,0.0145,0.014,0.00021025,0.000196
11:11:52,30-Sep-21,0.0145,0.014,0.00021025,0.000196
11:11:52,30-Sep-21,0.0145,0.014,0.00021025,0.000196
11:11:53,30-Sep-21,0.0145,0.014,0.00021025,0.000196
11:11:53,30-Sep-21,0.0145,0.014,0.00021025,0.000196
11:11:53,30-Sep-21,0.0145,0.014,0.00021025,0.000196
11:11:53,30-Sep-21,0.0145,0.014,0.00021025,0.000196
11:11:53,30-Sep-21,0.0145,0.014,0.00021025,0.000196
11:11:53,30-Sep-21,0.0145,0.014,0.00021025,0.000196
11:11:53,30-Sep-21,0.0145,0.014,0.00021025,0.000196
11:11:53,30-Sep-21,0.0145,0.014,0.00021025,0.000196
11:11:53,30-Sep-21,0.0145,0.014,0.00021025,0.000196
11:11:53,30-Sep-21,0.0145,0.014,0.00021025,0.000196
11:11:53,30-Sep-21,0.0145,0.014,0.00021025,0.000196
11:11:53,30-Sep-21,0.0145,0.014,0.00021025,0.000196
11:11:53,30-Sep-21,0.0145,0.014,0.00021025,0.000196
11:11:53,30-Sep-21,0.0145,0.014,0.00021025,0.000196
11:11:53,30-Sep-21,0.0145,0.014,0.00021025,0.000196
11:11:53,30-Sep-21,0.0145,0.014,0.00021025,0.000196
11:11:53,30-Sep-21,0.0145,0.014,0.00021025,0.000196
11:11:53,30-Sep-21,0.0145,0.014,0.00021025,0.000196
11:11:53,30-Sep-21,0.01,0.014,0.0001,0.000196
11:11:53,30-Sep-21,0.01,0.014,0.0001,0.000196
11:11:53,30-Sep-21,0.01,0.014,0.0001,0.000196
11:11:53,30-Sep-21,0.01,0.014,0.0001,0.000196
11:11:53,30-Sep-21,0.01,0.014,0.0001,0.000196
11:11:53,30-Sep-21,0.0145,0.014,0.00021025,0.000196
11:11:53,30-Sep-21,0.0145,0.014,0.00021025,0.000196
11:11:53,30-Sep-21,0.0145,0.014,0.00021025,0.000196
11:11:53,30-Sep-21,0.0145,0.014,0.00021025,0.000196
11:11:53,30-Sep-21,0.0145,0.014,0.00021025,0.000196
11:11:53,30-Sep-21,0.0145,0.014,0.00021025,0.000196
11:11:53,30-Sep-21,0.0145,0.014,0.00021025,0.000196
11:11:53,30-Sep-21,0.0145,0.014,0.00021025,0.000196
11:11:53,30-Sep-21,0.0145,0.014,0.00021025,0.000196
11:11:53,30-Sep-21,0.0145,0.014,0.00021025,0.000196
11:11:53,30-Sep-21,0.0145,0.014,0.00021025,0.000196
11:11:53,30-Sep-21,0.0145,0.014,0.00021025,0.000196
11:11:53,30-Sep-21,0.0145,0.014,0.00021025,0.000196
11:11:53,30-Sep-21,0.0145,0.014,0.00021025,0.000196
11:11:53,30-Sep-21,0.0145,0.014,0.00021025,0.000196
11:11:53,30-Sep-21,0.0145,0.014,0.00021025,0.000196
11:11:53,30-Sep-21,0.0145,0.014,0.00021025,0.000196
11:11:53,30-Sep-21,0.0145,0.014,0.00021025,0.000196
11:11:53,30-Sep-21,0.0145,0.014,0.00021025,0.000196
11:11:53,30-Sep-21,0.01,0.014,0.0001,0.000196
11:11:53,30-Sep-21,0.01,0.014,0.0001,0.000196
11:11:53,30-Sep-21,0.0145,0.014,0.00021025,0.000196
11:11:53,30-Sep-21,0.0145,0.014,0.00021025,0.000196
11:11:53,30-Sep-21,0.0145,0.014,0.00021025,0.000196
11:11:53,30-Sep-21,0.0145,0.014,0.00021025,0.000196
11:11:53,30-Sep-21,0.0145,0.014,0.00021025,0.000196
11:11:53,30-Sep-21,0.0145,0.014,0.00021025,0.000196
11:11:53,30-Sep-21,0.0145,0.014,0.00021025,0.000196
11:11:53,30-Sep-21,0.0145,0.014,0.00021025,0.000196
11:11:53,30-Sep-21,0.0145,0.014,0.00021025,0.000196
11:11:53,30-Sep-21,0.0145,0.014,0.00021025,0.000196
11:11:53,30-Sep-21,0.0145,0.014,0.00021025,0.000196
11:11:53,30-Sep-21,0.0145,0.014,0.00021025,0.000196
11:11:53,30-Sep-21,0.0145,0.014,0.00021025,0.000196
11:11:53,30-Sep-21,0.0145,0.014,0.00021025,0.000196
11:11:53,30-Sep-21,0.0145,0.014,0.00021025,0.000196
11:11:53,30-Sep-21,0.0145,0.014,0.00021025,0.000196
11:11:53,30-Sep-21,0.0145,0.014,0.00021025,0.000196
11:11:53,30-Sep-21,0.0145,0.015,0.00021025,0.000225
11:11:53,30-Sep-21,0.0145,0.015,0.00021025,0.000225
11:11:53,30-Sep-21,0.0145,0.015,0.00021025,0.000225
11:11:53,30-Sep-21,0.0145,0.015,0.00021025,0.000225
11:11:53,30-Sep-21,0.0145,0.015,0.00021025,0.000225
11:11:53,30-Sep-21,0.0145,0.015,0.00021025,0.000225
11:11:53,30-Sep-21,0.0145,0.015,0.00021025,0.000225
11:11:53,30-Sep-21,0.0145,0.015,0.00021025,0.000225
11:11:53,30-Sep-21,0.0145,0.015,0.00021025,0.000225
11:11:53,30-Sep-21,0.0145,0.015,0.00021025,0.000225
11:11:53,30-Sep-21,0.0145,0.015,0.00021025,0.000225
11:11:53,30-Sep-21,0.0145,0.015,0.00021025,0.000225
11:11:53,30-Sep-21,0.0145,0.015,0.00021025,0.000225
11:11:53,30-Sep-21,0.0145,0.014,0.00021025,0.000196
11:11:53,30-Sep-21,0.0145,0.014,0.00021025,0.000196
11:11:53,30-Sep-21,0.0145,0.014,0.00021025,0.000196
11:11:53,30-Sep-21,0.0145,0.014,0.00021025,0.000196
11:11:53,30-Sep-21,0.0145,0.014,0.00021025,0.000196
11:11:53,30-Sep-21,0.0145,0.014,0.00021025,0.000196
11:11:53,30-Sep-21,0.0145,0.014,0.00021025,0.000196
11:11:53,30-Sep-21,0.0145,0.014,0.00021025,0.000196
11:11:53,30-Sep-21,0.0145,0.014,0.00021025,0.000196
11:11:53,30-Sep-21,0.0145,0.014,0.00021025,0.000196
11:11:53,30-Sep-21,0.0145,0.014,0.00021025,0.000196
11:11:53,30-Sep-21,0.0145,0.014,0.00021025,0.000196
11:11:53,30-Sep-21,0.0145,0.014,0.00021025,0.000196
11:11:53,30-Sep-21,0.0145,0.014,0.00021025,0.000196
11:11:53,30-Sep-21,0.0145,0.014,0.00021025,0.000196
11:11:53,30-Sep-21,0.0145,0.014,0.00021025,0.000196
11:11:53,30-Sep-21,0.0145,0.014,0.00021025,0.000196
11:11:53,30-Sep-21,0.0145,0.014,0.00021025,0.000196
11:11:53,30-Sep-21,0.0145,0.014,0.00021025,0.000196
11:11:53,30-Sep-21,0.0145,0.014,0.00021025,0.000196
11:11:53,30-Sep-21,0.01,0.014,0.0001,0.000196
11:11:54,30-Sep-21,0.01,0.014,0.0001,0.000196
11:11:54,30-Sep-21,0.0145,0.014,0.00021025,0.000196
11:11:54,30-Sep-21,0.0145,0.014,0.00021025,0.000196
11:11:54,30-Sep-21,0.0145,0.014,0.00021025,0.000196
11:11:54,30-Sep-21,0.0145,0.014,0.00021025,0.000196
11:11:54,30-Sep-21,0.01,0.014,0.0001,0.000196
11:11:54,30-Sep-21,0.01,0.014,0.0001,0.000196
11:11:54,30-Sep-21,0.0145,0.014,0.00021025,0.000196
11:11:54,30-Sep-21,0.0145,0.014,0.00021025,0.000196
11:11:54,30-Sep-21,0.0145,0.014,0.00021025,0.000196
11:11:54,30-Sep-21,0.0145,0.014,0.00021025,0.000196
11:11:54,30-Sep-21,0.0145,0.014,0.00021025,0.000196
11:11:54,30-Sep-21,0.0145,0.014,0.00021025,0.000196
11:11:54,30-Sep-21,0.0145,0.014,0.00021025,0.000196
11:11:54,30-Sep-21,0.0145,0.014,0.00021025,0.000196
11:11:54,30-Sep-21,0.0145,0.014,0.00021025,0.000196
11:11:54,30-Sep-21,0.0145,0.014,0.00021025,0.000196
11:11:54,30-Sep-21,0.0145,0.014,0.00021025,0.000196
11:11:54,30-Sep-21,0.0145,0.013,0.00021025,0.000169
11:11:54,30-Sep-21,0.0145,0.013,0.00021025,0.000169
11:11:54,30-Sep-21,0.0145,0.013,0.00021025,0.000169
11:11:54,30-Sep-21,0.0145,0.013,0.00021025,0.000169
11:11:54,30-Sep-21,0.0145,0.013,0.00021025,0.000169
11:11:54,30-Sep-21,0.0145,0.013,0.00021025,0.000169
11:11:54,30-Sep-21,0.0145,0.013,0.00021025,0.000169
11:11:54,30-Sep-21,0.01,0.013,0.0001,0.000169
11:11:54,30-Sep-21,0.01,0.013,0.0001,0.000169
11:11:54,30-Sep-21,0.01,0.013,0.0001,0.000169
11:11:54,30-Sep-21,0.01,0.013,0.0001,0.000169
11:11:54,30-Sep-21,0.01,0.013,0.0001,0.000169
11:11:54,30-Sep-21,0.0145,0.013,0.00021025,0.000169
11:11:54,30-Sep-21,0.0145,0.013,0.00021025,0.000169
11:11:54,30-Sep-21,0.0145,0.013,0.00021025,0.000169
11:11:54,30-Sep-21,0.0145,0.013,0.00021025,0.000169
11:11:54,30-Sep-21,0.0145,0.013,0.00021025,0.000169
11:11:54,30-Sep-21,0.0145,0.013,0.00021025,0.000169
11:11:54,30-Sep-21,0.0145,0.013,0.00021025,0.000169
11:11:54,30-Sep-21,0.0145,0.013,0.00021025,0.000169
11:11:54,30-Sep-21,0.0145,0.013,0.00021025,0.000169
11:11:54,30-Sep-21,0.0145,0.013,0.00021025,0.000169
11:11:54,30-Sep-21,0.0145,0.013,0.00021025,0.000169
11:11:54,30-Sep-21,0.01,0.013,0.0001,0.000169
11:11:54,30-Sep-21,0.01,0.013,0.0001,0.000169
11:11:54,30-Sep-21,0.0145,0.014,0.00021025,0.000196
11:11:54,30-Sep-21,0.0145,0.014,0.00021025,0.000196
11:11:54,30-Sep-21,0.0145,0.014,0.00021025,0.000196
11:11:54,30-Sep-21,0.0145,0.014,0.00021025,0.000196
11:11:54,30-Sep-21,0.01,0.014,0.0001,0.000196
11:11:54,30-Sep-21,0.01,0.014,0.0001,0.000196
11:11:54,30-Sep-21,0.01,0.014,0.0001,0.000196
11:11:54,30-Sep-21,0.0145,0.014,0.00021025,0.000196
11:11:54,30-Sep-21,0.0145,0.014,0.00021025,0.000196
11:11:54,30-Sep-21,0.0145,0.014,0.00021025,0.000196
11:11:54,30-Sep-21,0.0145,0.014,0.00021025,0.000196
11:11:54,30-Sep-21,0.0145,0.014,0.00021025,0.000196
11:11:54,30-Sep-21,0.0145,0.014,0.00021025,0.000196
11:11:54,30-Sep-21,0.0145,0.014,0.00021025,0.000196
11:11:54,30-Sep-21,0.0145,0.014,0.00021025,0.000196
11:11:54,30-Sep-21,0.0145,0.014,0.00021025,0.000196
11:11:54,30-Sep-21,0.0145,0.014,0.00021025,0.000196
11:11:54,30-Sep-21,0.0145,0.014,0.00021025,0.000196
11:11:54,30-Sep-21,0.0145,0.014,0.00021025,0.000196
11:11:54,30-Sep-21,0.0145,0.014,0.00021025,0.000196
11:11:54,30-Sep-21,0.0145,0.014,0.00021025,0.000196
11:11:54,30-Sep-21,0.0145,0.014,0.00021025,0.000196
11:11:54,30-Sep-21,0.0145,0.014,0.00021025,0.000196
11:11:54,30-Sep-21,0.0145,0.014,0.00021025,0.000196
11:11:54,30-Sep-21,0.0145,0.014,0.00021025,0.000196
11:11:54,30-Sep-21,0.0145,0.014,0.00021025,0.000196
11:11:54,30-Sep-21,0.0145,0.014,0.00021025,0.000196
11:11:54,30-Sep-21,0.0145,0.014,0.00021025,0.000196
11:11:54,30-Sep-21,0.0145,0.014,0.00021025,0.000196
11:11:54,30-Sep-21,0.0145,0.014,0.00021025,0.000196
11:11:54,30-Sep-21,0.0145,0.013,0.00021025,0.000169
11:11:54,30-Sep-21,0.0145,0.013,0.00021025,0.000169
11:11:54,30-Sep-21,0.01,0.013,0.0001,0.000169
11:11:54,30-Sep-21,0.0145,0.013,0.00021025,0.000169
11:11:54,30-Sep-21,0.0145,0.013,0.00021025,0.000169
11:11:54,30-Sep-21,0.0145,0.013,0.00021025,0.000169
11:11:54,30-Sep-21,0.0145,0.013,0.00021025,0.000169
11:11:54,30-Sep-21,0.01,0.013,0.0001,0.000169
11:11:54,30-Sep-21,0.01,0.013,0.0001,0.000169
11:11:54,30-Sep-21,0.0145,0.013,0.00021025,0.000169
11:11:54,30-Sep-21,0.01,0.013,0.0001,0.000169
11:11:54,30-Sep-21,0.01,0.013,0.0001,0.000169
11:11:54,30-Sep-21,0.0145,0.013,0.00021025,0.000169
11:11:54,30-Sep-21,0.0145,0.013,0.00021025,0.000169
11:11:54,30-Sep-21,0.01,0.013,0.0001,0.000169
11:11:54,30-Sep-21,0.01,0.013,0.0001,0.000169
11:11:54,30-Sep-21,0.0145,0.013,0.00021025,0.000169
11:11:54,30-Sep-21,0.01,0.012,0.0001,0.000144
11:11:54,30-Sep-21,0.01,0.012,0.0001,0.000144
11:11:54,30-Sep-21,0.01,0.012,0.0001,0.000144
11:11:54,30-Sep-21,0.01,0.012,0.0001,0.000144
11:11:54,30-Sep-21,0.01,0.012,0.0001,0.000144
11:11:54,30-Sep-21,0.01,0.012,0.0001,0.000144
11:11:54,30-Sep-21,0.0145,0.012,0.00021025,0.000144
11:11:54,30-Sep-21,0.0145,0.012,0.00021025,0.000144
11:11:54,30-Sep-21,0.0145,0.012,0.00021025,0.000144
11:11:54,30-Sep-21,0.01,0.012,0.0001,0.000144
11:11:54,30-Sep-21,0.0145,0.012,0.00021025,0.000144
11:11:54,30-Sep-21,0.0145,0.013,0.00021025,0.000169
11:11:54,30-Sep-21,0.0145,0.013,0.00021025,0.000169
11:11:54,30-Sep-21,0.0145,0.013,0.00021025,0.000169
11:11:54,30-Sep-21,0.0145,0.013,0.00021025,0.000169
11:11:54,30-Sep-21,0.0145,0.013,0.00021025,0.000169
11:11:54,30-Sep-21,0.0145,0.013,0.00021025,0.000169
11:11:54,30-Sep-21,0.0145,0.013,0.00021025,0.000169
11:11:54,30-Sep-21,0.0145,0.013,0.00021025,0.000169
11:11:54,30-Sep-21,0.01,0.013,0.0001,0.000169
11:11:55,30-Sep-21,0.01,0.013,0.0001,0.000169
11:11:55,30-Sep-21,0.01,0.013,0.0001,0.000169
11:11:55,30-Sep-21,0.0145,0.013,0.00021025,0.000169
11:11:55,30-Sep-21,0.0145,0.013,0.00021025,0.000169
11:11:55,30-Sep-21,0.0145,0.013,0.00021025,0.000169
11:11:55,30-Sep-21,0.0145,0.013,0.00021025,0.000169
11:11:55,30-Sep-21,0.01,0.013,0.0001,0.000169
11:11:55,30-Sep-21,0.01,0.013,0.0001,0.000169
11:11:55,30-Sep-21,0.0145,0.013,0.00021025,0.000169
11:11:55,30-Sep-21,0.0145,0.013,0.00021025,0.000169
11:11:55,30-Sep-21,0.0145,0.013,0.00021025,0.000169
11:11:55,30-Sep-21,0.01,0.013,0.0001,0.000169
11:11:55,30-Sep-21,0.0145,0.013,0.00021025,0.000169
11:11:55,30-Sep-21,0.0145,0.013,0.00021025,0.000169
11:11:55,30-Sep-21,0.0145,0.013,0.00021025,0.000169
11:11:55,30-Sep-21,0.01,0.013,0.0001,0.000169
11:11:55,30-Sep-21,0.01,0.013,0.0001,0.000169
11:11:55,30-Sep-21,0.01,0.013,0.0001,0.000169
11:11:55,30-Sep-21,0.01,0.013,0.0001,0.000169
11:11:55,30-Sep-21,0.01,0.013,0.0001,0.000169
11:11:55,30-Sep-21,0.01,0.013,0.0001,0.000169
11:11:55,30-Sep-21,0.0145,0.013,0.00021025,0.000169
11:11:55,30-Sep-21,0.0145,0.013,0.00021025,0.000169
11:11:55,30-Sep-21,0.0145,0.013,0.00021025,0.000169
11:11:55,30-Sep-21,0.0145,0.014,0.00021025,0.000196
11:11:55,30-Sep-21,0.0145,0.014,0.00021025,0.000196
11:11:55,30-Sep-21,0.0145,0.014,0.00021025,0.000196
11:11:55,30-Sep-21,0.0145,0.014,0.00021025,0.000196
11:11:55,30-Sep-21,0.0145,0.014,0.00021025,0.000196
11:11:55,30-Sep-21,0.0145,0.014,0.00021025,0.000196
11:11:55,30-Sep-21,0.0145,0.014,0.00021025,0.000196
11:11:55,30-Sep-21,0.0145,0.014,0.00021025,0.000196
11:11:55,30-Sep-21,0.0145,0.015,0.00021025,0.000225
11:11:55,30-Sep-21,0.0145,0.015,0.00021025,0.000225
11:11:55,30-Sep-21,0.0145,0.015,0.00021025,0.000225
11:11:55,30-Sep-21,0.0145,0.015,0.00021025,0.000225
11:11:55,30-Sep-21,0.0145,0.015,0.00021025,0.000225
11:11:55,30-Sep-21,0.0145,0.015,0.00021025,0.000225
11:11:55,30-Sep-21,0.0145,0.015,0.00021025,0.000225
11:11:55,30-Sep-21,0.0145,0.016,0.00021025,0.000256
11:11:55,30-Sep-21,0.0195,0.016,0.00038025,0.000256
11:11:55,30-Sep-21,0.0195,0.016,0.00038025,0.000256
11:11:55,30-Sep-21,0.0145,0.016,0.00021025,0.000256
11:11:55,30-Sep-21,0.0145,0.016,0.00021025,0.000256
11:11:55,30-Sep-21,0.0145,0.016,0.00021025,0.000256
11:11:55,30-Sep-21,0.0145,0.017,0.00021025,0.000289
11:11:55,30-Sep-21,0.0145,0.017,0.00021025,0.000289
11:11:55,30-Sep-21,0.0195,0.017,0.00038025,0.000289
11:11:55,30-Sep-21,0.0195,0.017,0.00038025,0.000289
11:11:55,30-Sep-21,0.0195,0.017,0.00038025,0.000289
11:11:55,30-Sep-21,0.0195,0.017,0.00038025,0.000289
11:11:55,30-Sep-21,0.0195,0.017,0.00038025,0.000289
11:11:55,30-Sep-21,0.0195,0.018,0.00038025,0.000324
11:11:55,30-Sep-21,0.0195,0.018,0.00038025,0.000324
11:11:55,30-Sep-21,0.0195,0.018,0.00038025,0.000324
11:11:55,30-Sep-21,0.0195,0.018,0.00038025,0.000324
11:11:55,30-Sep-21,0.0145,0.018,0.00021025,0.000324
11:11:55,30-Sep-21,0.0145,0.018,0.00021025,0.000324
11:11:55,30-Sep-21,0.0145,0.018,0.00021025,0.000324
11:11:55,30-Sep-21,0.0145,0.018,0.00021025,0.000324
11:11:55,30-Sep-21,0.0195,0.019,0.00038025,0.000361
11:11:55,30-Sep-21,0.0195,0.019,0.00038025,0.000361
11:11:55,30-Sep-21,0.0195,0.019,0.00038025,0.000361
11:11:55,30-Sep-21,0.0195,0.019,0.00038025,0.000361
11:11:55,30-Sep-21,0.0195,0.019,0.00038025,0.000361
11:11:55,30-Sep-21,0.0195,0.019,0.00038025,0.000361
11:11:55,30-Sep-21,0.0195,0.019,0.00038025,0.000361
11:11:55,30-Sep-21,0.0195,0.019,0.00038025,0.000361
11:11:55,30-Sep-21,0.0195,0.019,0.00038025,0.000361
11:11:55,30-Sep-21,0.0195,0.019,0.00038025,0.000361
11:11:55,30-Sep-21,0.0195,0.02,0.00038025,0.0004
11:11:55,30-Sep-21,0.0195,0.02,0.00038025,0.0004
11:11:55,30-Sep-21,0.0195,0.02,0.00038025,0.0004
11:11:55,30-Sep-21,0.0195,0.02,0.00038025,0.0004
11:11:55,30-Sep-21,0.0195,0.02,0.00038025,0.0004
11:11:55,30-Sep-21,0.0195,0.02,0.00038025,0.0004
11:11:55,30-Sep-21,0.0195,0.02,0.00038025,0.0004
11:11:55,30-Sep-21,0.0245,0.02,0.00060025,0.0004
11:11:55,30-Sep-21,0.0245,0.02,0.00060025,0.0004
11:11:55,30-Sep-21,0.0195,0.021,0.00038025,0.000441
11:11:55,30-Sep-21,0.0195,0.021,0.00038025,0.000441
11:11:55,30-Sep-21,0.0195,0.021,0.00038025,0.000441
11:11:55,30-Sep-21,0.0195,0.021,0.00038025,0.000441
11:11:55,30-Sep-21,0.0195,0.021,0.00038025,0.000441
11:11:55,30-Sep-21,0.0195,0.021,0.00038025,0.000441
11:11:55,30-Sep-21,0.0195,0.021,0.00038025,0.000441
11:11:55,30-Sep-21,0.0195,0.021,0.00038025,0.000441
11:11:55,30-Sep-21,0.0195,0.021,0.00038025,0.000441
11:11:55,30-Sep-21,0.0195,0.022,0.00038025,0.000484
11:11:55,30-Sep-21,0.0195,0.022,0.00038025,0.000484
11:11:55,30-Sep-21,0.0245,0.022,0.00060025,0.000484
11:11:55,30-Sep-21,0.0245,0.022,0.00060025,0.000484
11:11:55,30-Sep-21,0.0245,0.022,0.00060025,0.000484
11:11:55,30-Sep-21,0.0245,0.022,0.00060025,0.000484
11:11:55,30-Sep-21,0.0245,0.022,0.00060025,0.000484
11:11:55,30-Sep-21,0.0245,0.022,0.00060025,0.000484
11:11:55,30-Sep-21,0.0245,0.022,0.00060025,0.000484
11:11:55,30-Sep-21,0.0245,0.023,0.00060025,0.000529
11:11:55,30-Sep-21,0.0245,0.023,0.00060025,0.000529
11:11:55,30-Sep-21,0.0195,0.023,0.00038025,0.000529
11:11:55,30-Sep-21,0.0195,0.023,0.00038025,0.000529
11:11:55,30-Sep-21,0.0195,0.023,0.00038025,0.000529
11:11:55,30-Sep-21,0.0195,0.023,0.00038025,0.000529
11:11:56,30-Sep-21,0.0195,0.023,0.00038025,0.000529
11:11:56,30-Sep-21,0.0245,0.023,0.00060025,0.000529
11:11:56,30-Sep-21,0.0195,0.023,0.00038025,0.000529
11:11:56,30-Sep-21,0.0245,0.023,0.00060025,0.000529
11:11:56,30-Sep-21,0.0245,0.023,0.00060025,0.000529
11:11:56,30-Sep-21,0.0245,0.023,0.00060025,0.000529
11:11:56,30-Sep-21,0.0245,0.023,0.00060025,0.000529
11:11:56,30-Sep-21,0.0245,0.023,0.00060025,0.000529
11:11:56,30-Sep-21,0.0245,0.023,0.00060025,0.000529
11:11:56,30-Sep-21,0.0245,0.023,0.00060025,0.000529
11:11:56,30-Sep-21,0.0245,0.023,0.00060025,0.000529
11:11:56,30-Sep-21,0.0245,0.023,0.00060025,0.000529
11:11:56,30-Sep-21,0.0245,0.023,0.00060025,0.000529
11:11:56,30-Sep-21,0.0245,0.023,0.00060025,0.000529
11:11:56,30-Sep-21,0.0245,0.023,0.00060025,0.000529
11:11:56,30-Sep-21,0.0245,0.023,0.00060025,0.000529
11:11:56,30-Sep-21,0.0245,0.023,0.00060025,0.000529
11:11:56,30-Sep-21,0.0245,0.023,0.00060025,0.000529
11:11:56,30-Sep-21,0.0245,0.023,0.00060025,0.000529
11:11:56,30-Sep-21,0.0245,0.023,0.00060025,0.000529
11:11:56,30-Sep-21,0.0245,0.023,0.00060025,0.000529
11:11:56,30-Sep-21,0.0245,0.023,0.00060025,0.000529
11:11:56,30-Sep-21,0.0195,0.023,0.00038025,0.000529
11:11:56,30-Sep-21,0.0245,0.023,0.00060025,0.000529
11:11:56,30-Sep-21,0.0245,0.023,0.00060025,0.000529
11:11:56,30-Sep-21,0.0195,0.023,0.00038025,0.000529
11:11:56,30-Sep-21,0.0195,0.023,0.00038025,0.000529
11:11:56,30-Sep-21,0.0195,0.023,0.00038025,0.000529
11:11:56,30-Sep-21,0.0195,0.023,0.00038025,0.000529
11:11:56,30-Sep-21,0.0195,0.023,0.00038025,0.000529
11:11:56,30-Sep-21,0.0195,0.023,0.00038025,0.000529
11:11:56,30-Sep-21,0.0245,0.023,0.00060025,0.000529
11:11:56,30-Sep-21,0.0245,0.023,0.00060025,0.000529
11:11:56,30-Sep-21,0.0195,0.023,0.00038025,0.000529
11:11:56,30-Sep-21,0.0195,0.023,0.00038025,0.000529
11:11:56,30-Sep-21,0.0195,0.023,0.00038025,0.000529
11:11:56,30-Sep-21,0.0245,0.023,0.00060025,0.000529
11:11:56,30-Sep-21,0.0245,0.023,0.00060025,0.000529
11:11:56,30-Sep-21,0.0245,0.023,0.00060025,0.000529
11:11:56,30-Sep-21,0.0245,0.023,0.00060025,0.000529
11:11:56,30-Sep-21,0.0245,0.023,0.00060025,0.000529
11:11:56,30-Sep-21,0.0195,0.023,0.00038025,0.000529
11:11:56,30-Sep-21,0.0195,0.023,0.00038025,0.000529
11:11:56,30-Sep-21,0.0245,0.023,0.00060025,0.000529
11:11:56,30-Sep-21,0.0245,0.023,0.00060025,0.000529
11:11:56,30-Sep-21,0.0245,0.023,0.00060025,0.000529
11:11:56,30-Sep-21,0.0245,0.024,0.00060025,0.000576
11:11:56,30-Sep-21,0.0245,0.024,0.00060025,0.000576
11:11:56,30-Sep-21,0.0245,0.024,0.00060025,0.000576
11:11:56,30-Sep-21,0.0245,0.024,0.00060025,0.000576
11:11:56,30-Sep-21,0.0245,0.024,0.00060025,0.000576
11:11:56,30-Sep-21,0.0245,0.024,0.00060025,0.000576
11:11:56,30-Sep-21,0.0245,0.024,0.00060025,0.000576
11:11:56,30-Sep-21,0.0245,0.024,0.00060025,0.000576
11:11:56,30-Sep-21,0.0245,0.024,0.00060025,0.000576
11:11:56,30-Sep-21,0.0245,0.024,0.00060025,0.000576
11:11:56,30-Sep-21,0.0245,0.024,0.00060025,0.000576
11:11:56,30-Sep-21,0.0245,0.024,0.00060025,0.000576
11:11:56,30-Sep-21,0.0245,0.024,0.00060025,0.000576
11:11:56,30-Sep-21,0.0245,0.024,0.00060025,0.000576
11:11:56,30-Sep-21,0.0245,0.024,0.00060025,0.000576
11:11:56,30-Sep-21,0.0245,0.024,0.00060025,0.000576
11:11:56,30-Sep-21,0.0245,0.024,0.00060025,0.000576
11:11:56,30-Sep-21,0.0245,0.024,0.00060025,0.000576
11:11:56,30-Sep-21,0.0245,0.024,0.00060025,0.000576
11:11:56,30-Sep-21,0.0245,0.024,0.00060025,0.000576
11:11:56,30-Sep-21,0.0245,0.024,0.00060025,0.000576
11:11:56,30-Sep-21,0.0245,0.024,0.00060025,0.000576
11:11:56,30-Sep-21,0.0245,0.024,0.00060025,0.000576
11:11:56,30-Sep-21,0.0245,0.024,0.00060025,0.000576
11:11:56,30-Sep-21,0.0245,0.024,0.00060025,0.000576
11:11:56,30-Sep-21,0.0245,0.024,0.00060025,0.000576
11:11:56,30-Sep-21,0.0245,0.024,0.00060025,0.000576
11:11:56,30-Sep-21,0.0245,0.024,0.00060025,0.000576
11:11:56,30-Sep-21,0.0245,0.024,0.00060025,0.000576
11:11:56,30-Sep-21,0.0245,0.024,0.00060025,0.000576
11:11:56,30-Sep-21,0.0245,0.024,0.00060025,0.000576
11:11:56,30-Sep-21,0.0245,0.024,0.00060025,0.000576
11:11:56,30-Sep-21,0.0245,0.023,0.00060025,0.000529
11:11:56,30-Sep-21,0.0245,0.023,0.00060025,0.000529
11:11:56,30-Sep-21,0.0245,0.023,0.00060025,0.000529
11:11:56,30-Sep-21,0.0245,0.023,0.00060025,0.000529
11:11:56,30-Sep-21,0.0245,0.023,0.00060025,0.000529
11:11:56,30-Sep-21,0.0195,0.023,0.00038025,0.000529
11:11:56,30-Sep-21,0.0195,0.023,0.00038025,0.000529
11:11:56,30-Sep-21,0.0195,0.023,0.00038025,0.000529
11:11:56,30-Sep-21,0.0195,0.023,0.00038025,0.000529
11:11:56,30-Sep-21,0.0195,0.023,0.00038025,0.000529
11:11:56,30-Sep-21,0.0195,0.023,0.00038025,0.000529
11:11:56,30-Sep-21,0.0195,0.023,0.00038025,0.000529
11:11:56,30-Sep-21,0.0195,0.023,0.00038025,0.000529
11:11:56,30-Sep-21,0.0245,0.023,0.00060025,0.000529
11:11:56,30-Sep-21,0.0245,0.023,0.00060025,0.000529
11:11:56,30-Sep-21,0.0245,0.023,0.00060025,0.000529
11:11:56,30-Sep-21,0.0245,0.023,0.00060025,0.000529
11:11:56,30-Sep-21,0.0245,0.023,0.00060025,0.000529
11:11:56,30-Sep-21,0.0245,0.023,0.00060025,0.000529
11:11:56,30-Sep-21,0.0245,0.023,0.00060025,0.000529
11:11:56,30-Sep-21,0.0245,0.023,0.00060025,0.000529
11:11:56,30-Sep-21,0.0245,0.023,0.00060025,0.000529
11:11:56,30-Sep-21,0.0245,0.023,0.00060025,0.000529
11:11:56,30-Sep-21,0.0245,0.023,0.00060025,0.000529
11:11:56,30-Sep-21,0.0245,0.023,0.00060025,0.000529
11:11:56,30-Sep-21,0.0245,0.023,0.00060025,0.000529
11:11:56,30-Sep-21,0.0245,0.023,0.00060025,0.000529
11:11:56,30-Sep-21,0.0245,0.024,0.00060025,0.000576
11:11:56,30-Sep-21,0.0245,0.024,0.00060025,0.000576
11:11:56,30-Sep-21,0.0195,0.024,0.00038025,0.000576
11:11:57,30-Sep-21,0.0195,0.024,0.00038025,0.000576
11:11:57,30-Sep-21,0.0245,0.024,0.00060025,0.000576
11:11:57,30-Sep-21,0.0245,0.024,0.00060025,0.000576
11:11:57,30-Sep-21,0.0245,0.024,0.00060025,0.000576
11:11:57,30-Sep-21,0.0245,0.024,0.00060025,0.000576
11:11:57,30-Sep-21,0.0245,0.024,0.00060025,0.000576
11:11:57,30-Sep-21,0.0245,0.024,0.00060025,0.000576
11:11:57,30-Sep-21,0.0245,0.024,0.00060025,0.000576
11:11:57,30-Sep-21,0.0245,0.024,0.00060025,0.000576
11:11:57,30-Sep-21,0.0245,0.024,0.00060025,0.000576
11:11:57,30-Sep-21,0.0245,0.024,0.00060025,0.000576
11:11:57,30-Sep-21,0.0245,0.024,0.00060025,0.000576
11:11:57,30-Sep-21,0.0245,0.024,0.00060025,0.000576
11:11:57,30-Sep-21,0.0245,0.024,0.00060025,0.000576
11:11:57,30-Sep-21,0.0245,0.024,0.00060025,0.000576
11:11:57,30-Sep-21,0.0245,0.024,0.00060025,0.000576
11:11:57,30-Sep-21,0.0245,0.024,0.00060025,0.000576
11:11:57,30-Sep-21,0.0195,0.024,0.00038025,0.000576
11:11:57,30-Sep-21,0.0195,0.024,0.00038025,0.000576
11:11:57,30-Sep-21,0.0195,0.024,0.00038025,0.000576
11:11:57,30-Sep-21,0.0245,0.024,0.00060025,0.000576
11:11:57,30-Sep-21,0.0245,0.024,0.00060025,0.000576
11:11:57,30-Sep-21,0.0245,0.024,0.00060025,0.000576
11:11:57,30-Sep-21,0.0245,0.024,0.00060025,0.000576
11:11:57,30-Sep-21,0.0245,0.024,0.00060025,0.000576
11:11:57,30-Sep-21,0.0245,0.024,0.00060025,0.000576
11:11:57,30-Sep-21,0.0245,0.024,0.00060025,0.000576
11:11:57,30-Sep-21,0.0245,0.024,0.00060025,0.000576
11:11:57,30-Sep-21,0.0245,0.024,0.00060025,0.000576
11:11:57,30-Sep-21,0.0245,0.024,0.00060025,0.000576
11:11:57,30-Sep-21,0.0245,0.024,0.00060025,0.000576
11:11:57,30-Sep-21,0.0245,0.024,0.00060025,0.000576
11:11:57,30-Sep-21,0.0245,0.024,0.00060025,0.000576
11:11:57,30-Sep-21,0.0245,0.024,0.00060025,0.000576
11:11:57,30-Sep-21,0.0245,0.024,0.00060025,0.000576
11:11:57,30-Sep-21,0.0245,0.024,0.00060025,0.000576
11:11:57,30-Sep-21,0.0245,0.024,0.00060025,0.000576
11:11:57,30-Sep-21,0.0245,0.023,0.00060025,0.000529
11:11:57,30-Sep-21,0.0245,0.023,0.00060025,0.000529
11:11:57,30-Sep-21,0.0245,0.023,0.00060025,0.000529
11:11:57,30-Sep-21,0.0245,0.023,0.00060025,0.000529
11:11:57,30-Sep-21,0.0245,0.023,0.00060025,0.000529
11:11:57,30-Sep-21,0.0245,0.023,0.00060025,0.000529
11:11:57,30-Sep-21,0.0245,0.023,0.00060025,0.000529
11:11:57,30-Sep-21,0.0195,0.023,0.00038025,0.000529
11:11:57,30-Sep-21,0.0195,0.023,0.00038025,0.000529
11:11:57,30-Sep-21,0.0195,0.023,0.00038025,0.000529
11:11:57,30-Sep-21,0.0195,0.023,0.00038025,0.000529
11:11:57,30-Sep-21,0.0195,0.023,0.00038025,0.000529
11:11:57,30-Sep-21,0.0195,0.023,0.00038025,0.000529
11:11:57,30-Sep-21,0.0195,0.023,0.00038025,0.000529
11:11:57,30-Sep-21,0.0245,0.023,0.00060025,0.000529
11:11:57,30-Sep-21,0.0245,0.023,0.00060025,0.000529
11:11:57,30-Sep-21,0.0195,0.023,0.00038025,0.000529
11:11:57,30-Sep-21,0.0195,0.023,0.00038025,0.000529
11:11:57,30-Sep-21,0.0245,0.023,0.00060025,0.000529
11:11:57,30-Sep-21,0.0245,0.023,0.00060025,0.000529
11:11:57,30-Sep-21,0.0245,0.023,0.00060025,0.000529
11:11:57,30-Sep-21,0.0245,0.023,0.00060025,0.000529
11:11:57,30-Sep-21,0.0245,0.023,0.00060025,0.000529
11:11:57,30-Sep-21,0.0295,0.023,0.00087025,0.000529
11:11:57,30-Sep-21,0.0245,0.023,0.00060025,0.000529
11:11:57,30-Sep-21,0.0295,0.023,0.00087025,0.000529
11:11:57,30-Sep-21,0.0245,0.023,0.00060025,0.000529
11:11:57,30-Sep-21,0.0245,0.023,0.00060025,0.000529
11:11:57,30-Sep-21,0.0245,0.023,0.00060025,0.000529
11:11:57,30-Sep-21,0.0245,0.023,0.00060025,0.000529
11:11:57,30-Sep-21,0.0245,0.023,0.00060025,0.000529
11:11:57,30-Sep-21,0.0245,0.023,0.00060025,0.000529
11:11:57,30-Sep-21,0.0195,0.023,0.00038025,0.000529
11:11:57,30-Sep-21,0.0195,0.023,0.00038025,0.000529
11:11:57,30-Sep-21,0.0195,0.022,0.00038025,0.000484
11:11:57,30-Sep-21,0.0195,0.022,0.00038025,0.000484
11:11:57,30-Sep-21,0.0245,0.022,0.00060025,0.000484
11:11:57,30-Sep-21,0.0195,0.022,0.00038025,0.000484
11:11:57,30-Sep-21,0.0195,0.022,0.00038025,0.000484
11:11:57,30-Sep-21,0.0195,0.022,0.00038025,0.000484
11:11:57,30-Sep-21,0.0195,0.022,0.00038025,0.000484
11:11:57,30-Sep-21,0.0195,0.022,0.00038025,0.000484
11:11:57,30-Sep-21,0.0195,0.022,0.00038025,0.000484
11:11:57,30-Sep-21,0.0195,0.022,0.00038025,0.000484
11:11:57,30-Sep-21,0.0195,0.022,0.00038025,0.000484
11:11:57,30-Sep-21,0.0195,0.022,0.00038025,0.000484
11:11:57,30-Sep-21,0.0245,0.022,0.00060025,0.000484
11:11:57,30-Sep-21,0.0245,0.022,0.00060025,0.000484
11:11:57,30-Sep-21,0.0245,0.022,0.00060025,0.000484
11:11:58,30-Sep-21,0.0245,0.022,0.00060025,0.000484
11:11:58,30-Sep-21,0.0245,0.022,0.00060025,0.000484
11:11:58,30-Sep-21,0.0245,0.023,0.00060025,0.000529
11:11:58,30-Sep-21,0.0245,0.023,0.00060025,0.000529
11:11:58,30-Sep-21,0.0245,0.023,0.00060025,0.000529
11:11:58,30-Sep-21,0.0245,0.023,0.00060025,0.000529
11:11:58,30-Sep-21,0.0245,0.023,0.00060025,0.000529
11:11:58,30-Sep-21,0.0245,0.023,0.00060025,0.000529
11:11:58,30-Sep-21,0.0245,0.023,0.00060025,0.000529
11:11:58,30-Sep-21,0.0245,0.023,0.00060025,0.000529
11:11:58,30-Sep-21,0.0245,0.023,0.00060025,0.000529
11:11:58,30-Sep-21,0.0245,0.023,0.00060025,0.000529
11:11:58,30-Sep-21,0.0245,0.023,0.00060025,0.000529
11:11:58,30-Sep-21,0.0245,0.023,0.00060025,0.000529
11:11:58,30-Sep-21,0.0195,0.022,0.00038025,0.000484
11:11:58,30-Sep-21,0.0195,0.022,0.00038025,0.000484
11:11:58,30-Sep-21,0.0195,0.022,0.00038025,0.000484
11:11:58,30-Sep-21,0.0245,0.022,0.00060025,0.000484
11:11:58,30-Sep-21,0.0245,0.022,0.00060025,0.000484
11:11:58,30-Sep-21,0.0195,0.022,0.00038025,0.000484
11:11:58,30-Sep-21,0.0195,0.022,0.00038025,0.000484
11:11:58,30-Sep-21,0.0195,0.022,0.00038025,0.000484
11:11:58,30-Sep-21,0.0195,0.023,0.00038025,0.000529
11:11:58,30-Sep-21,0.0195,0.023,0.00038025,0.000529
11:11:58,30-Sep-21,0.0195,0.023,0.00038025,0.000529
11:11:58,30-Sep-21,0.0245,0.023,0.00060025,0.000529
11:11:58,30-Sep-21,0.0245,0.023,0.00060025,0.000529
11:11:58,30-Sep-21,0.0245,0.023,0.00060025,0.000529
11:11:58,30-Sep-21,0.0245,0.023,0.00060025,0.000529
11:11:58,30-Sep-21,0.0195,0.023,0.00038025,0.000529
11:11:58,30-Sep-21,0.0195,0.023,0.00038025,0.000529
11:11:58,30-Sep-21,0.0195,0.023,0.00038025,0.000529
11:11:58,30-Sep-21,0.0195,0.023,0.00038025,0.000529
11:11:58,30-Sep-21,0.0195,0.023,0.00038025,0.000529
11:11:58,30-Sep-21,0.0195,0.023,0.00038025,0.000529
11:11:58,30-Sep-21,0.0245,0.023,0.00060025,0.000529
11:11:58,30-Sep-21,0.0245,0.023,0.00060025,0.000529
11:11:58,30-Sep-21,0.0245,0.023,0.00060025,0.000529
11:11:58,30-Sep-21,0.0245,0.023,0.00060025,0.000529
11:11:58,30-Sep-21,0.0245,0.023,0.00060025,0.000529
11:11:58,30-Sep-21,0.0245,0.023,0.00060025,0.000529
11:11:58,30-Sep-21,0.0245,0.023,0.00060025,0.000529
11:11:58,30-Sep-21,0.0245,0.023,0.00060025,0.000529
11:11:58,30-Sep-21,0.0245,0.023,0.00060025,0.000529
11:11:58,30-Sep-21,0.0245,0.023,0.00060025,0.000529
11:11:58,30-Sep-21,0.0245,0.022,0.00060025,0.000484
11:11:58,30-Sep-21,0.0245,0.022,0.00060025,0.000484
11:11:58,30-Sep-21,0.0245,0.022,0.00060025,0.000484
11:11:58,30-Sep-21,0.0245,0.022,0.00060025,0.000484
11:11:58,30-Sep-21,0.0245,0.022,0.00060025,0.000484
11:11:58,30-Sep-21,0.0245,0.022,0.00060025,0.000484
11:11:58,30-Sep-21,0.0245,0.022,0.00060025,0.000484
11:11:58,30-Sep-21,0.0245,0.021,0.00060025,0.000441
11:11:58,30-Sep-21,0.0195,0.021,0.00038025,0.000441
11:11:58,30-Sep-21,0.0195,0.021,0.00038025,0.000441
11:11:58,30-Sep-21,0.0195,0.021,0.00038025,0.000441
11:11:58,30-Sep-21,0.0195,0.021,0.00038025,0.000441
11:11:58,30-Sep-21,0.0195,0.02,0.00038025,0.0004
11:11:58,30-Sep-21,0.0195,0.02,0.00038025,0.0004
11:11:58,30-Sep-21,0.0195,0.02,0.00038025,0.0004
11:11:58,30-Sep-21,0.0195,0.02,0.00038025,0.0004
11:11:58,30-Sep-21,0.0195,0.02,0.00038025,0.0004
11:11:58,30-Sep-21,0.0195,0.02,0.00038025,0.0004
11:11:58,30-Sep-21,0.0195,0.019,0.00038025,0.000361
11:11:58,30-Sep-21,0.0195,0.019,0.00038025,0.000361
11:11:58,30-Sep-21,0.0145,0.019,0.00021025,0.000361
11:11:58,30-Sep-21,0.0145,0.019,0.00021025,0.000361
11:11:58,30-Sep-21,0.0145,0.019,0.00021025,0.000361
11:11:58,30-Sep-21,0.0145,0.019,0.00021025,0.000361
11:11:58,30-Sep-21,0.0145,0.019,0.00021025,0.000361
11:11:58,30-Sep-21,0.0195,0.018,0.00038025,0.000324
11:11:58,30-Sep-21,0.0195,0.018,0.00038025,0.000324
11:11:58,30-Sep-21,0.0145,0.018,0.00021025,0.000324
11:11:58,30-Sep-21,0.0145,0.018,0.00021025,0.000324
11:11:58,30-Sep-21,0.0195,0.018,0.00038025,0.000324
11:11:58,30-Sep-21,0.0195,0.018,0.00038025,0.000324
11:11:58,30-Sep-21,0.0195,0.018,0.00038025,0.000324
11:11:58,30-Sep-21,0.0195,0.018,0.00038025,0.000324
11:11:58,30-Sep-21,0.0195,0.018,0.00038025,0.000324
11:11:58,30-Sep-21,0.0195,0.018,0.00038025,0.000324
11:11:58,30-Sep-21,0.0195,0.018,0.00038025,0.000324
11:11:58,30-Sep-21,0.0195,0.018,0.00038025,0.000324
11:11:58,30-Sep-21,0.0195,0.018,0.00038025,0.000324
11:11:58,30-Sep-21,0.0195,0.018,0.00038025,0.000324
11:11:58,30-Sep-21,0.0195,0.018,0.00038025,0.000324
11:11:58,30-Sep-21,0.0195,0.018,0.00038025,0.000324
11:11:58,30-Sep-21,0.0195,0.018,0.00038025,0.000324
11:11:58,30-Sep-21,0.0195,0.018,0.00038025,0.000324
11:11:58,30-Sep-21,0.0145,0.018,0.00021025,0.000324
11:11:58,30-Sep-21,0.0145,0.018,0.00021025,0.000324
11:11:59,30-Sep-21,0.0145,0.018,0.00021025,0.000324
11:11:59,30-Sep-21,0.0145,0.017,0.00021025,0.000289
11:11:59,30-Sep-21,0.0195,0.017,0.00038025,0.000289
11:11:59,30-Sep-21,0.0195,0.017,0.00038025,0.000289
11:11:59,30-Sep-21,0.0195,0.017,0.00038025,0.000289
11:11:59,30-Sep-21,0.0195,0.017,0.00038025,0.000289
11:11:59,30-Sep-21,0.0195,0.017,0.00038025,0.000289
11:11:59,30-Sep-21,0.0195,0.017,0.00038025,0.000289
11:11:59,30-Sep-21,0.0195,0.017,0.00038025,0.000289
11:11:59,30-Sep-21,0.0195,0.017,0.00038025,0.000289
11:11:59,30-Sep-21,0.0195,0.017,0.00038025,0.000289
11:11:59,30-Sep-21,0.0145,0.017,0.00021025,0.000289
11:11:59,30-Sep-21,0.0145,0.017,0.00021025,0.000289
11:11:59,30-Sep-21,0.0145,0.017,0.00021025,0.000289
11:11:59,30-Sep-21,0.0145,0.016,0.00021025,0.000256
11:11:59,30-Sep-21,0.0145,0.016,0.00021025,0.000256
11:11:59,30-Sep-21,0.0145,0.016,0.00021025,0.000256
11:11:59,30-Sep-21,0.0145,0.016,0.00021025,0.000256
11:11:59,30-Sep-21,0.0145,0.016,0.00021025,0.000256
11:11:59,30-Sep-21,0.0145,0.016,0.00021025,0.000256
11:11:59,30-Sep-21,0.0145,0.016,0.00021025,0.000256
11:11:59,30-Sep-21,0.0145,0.016,0.00021025,0.000256
11:11:59,30-Sep-21,0.0145,0.016,0.00021025,0.000256
11:11:59,30-Sep-21,0.0195,0.016,0.00038025,0.000256
11:11:59,30-Sep-21,0.0195,0.016,0.00038025,0.000256
11:11:59,30-Sep-21,0.0195,0.016,0.00038025,0.000256
11:11:59,30-Sep-21,0.0195,0.016,0.00038025,0.000256
11:11:59,30-Sep-21,0.0195,0.016,0.00038025,0.000256
11:11:59,30-Sep-21,0.0145,0.016,0.00021025,0.000256
11:11:59,30-Sep-21,0.0145,0.016,0.00021025,0.000256
11:11:59,30-Sep-21,0.0145,0.016,0.00021025,0.000256
11:11:59,30-Sep-21,0.0145,0.016,0.00021025,0.000256
11:11:59,30-Sep-21,0.0145,0.016,0.00021025,0.000256
11:11:59,30-Sep-21,0.0145,0.016,0.00021025,0.000256
11:11:59,30-Sep-21,0.0145,0.016,0.00021025,0.000256
11:11:59,30-Sep-21,0.0145,0.016,0.00021025,0.000256
11:11:59,30-Sep-21,0.0145,0.016,0.00021025,0.000256
11:11:59,30-Sep-21,0.0145,0.017,0.00021025,0.000289
11:11:59,30-Sep-21,0.0145,0.017,0.00021025,0.000289
11:11:59,30-Sep-21,0.0145,0.017,0.00021025,0.000289
11:11:59,30-Sep-21,0.0145,0.017,0.00021025,0.000289
11:11:59,30-Sep-21,0.0145,0.017,0.00021025,0.000289
11:11:59,30-Sep-21,0.0145,0.017,0.00021025,0.000289
11:11:59,30-Sep-21,0.0195,0.017,0.00038025,0.000289
11:11:59,30-Sep-21,0.0195,0.017,0.00038025,0.000289
11:11:59,30-Sep-21,0.0195,0.017,0.00038025,0.000289
11:11:59,30-Sep-21,0.0195,0.017,0.00038025,0.000289
11:11:59,30-Sep-21,0.0195,0.018,0.00038025,0.000324
11:11:59,30-Sep-21,0.0195,0.018,0.00038025,0.000324
11:11:59,30-Sep-21,0.0195,0.018,0.00038025,0.000324
11:11:59,30-Sep-21,0.0195,0.018,0.00038025,0.000324
11:11:59,30-Sep-21,0.0195,0.018,0.00038025,0.000324
11:11:59,30-Sep-21,0.0145,0.018,0.00021025,0.000324
11:11:59,30-Sep-21,0.0195,0.018,0.00038025,0.000324
11:11:59,30-Sep-21,0.0195,0.018,0.00038025,0.000324
11:11:59,30-Sep-21,0.0195,0.018,0.00038025,0.000324
11:11:59,30-Sep-21,0.0195,0.018,0.00038025,0.000324
11:11:59,30-Sep-21,0.0195,0.018,0.00038025,0.000324
11:11:59,30-Sep-21,0.0195,0.018,0.00038025,0.000324
11:11:59,30-Sep-21,0.0195,0.018,0.00038025,0.000324
11:11:59,30-Sep-21,0.0195,0.018,0.00038025,0.000324
11:11:59,30-Sep-21,0.0195,0.018,0.00038025,0.000324
11:11:59,30-Sep-21,0.0195,0.018,0.00038025,0.000324
11:11:59,30-Sep-21,0.0195,0.017,0.00038025,0.000289
11:11:59,30-Sep-21,0.0195,0.017,0.00038025,0.000289
11:11:59,30-Sep-21,0.0195,0.017,0.00038025,0.000289
11:11:59,30-Sep-21,0.0195,0.017,0.00038025,0.000289
11:11:59,30-Sep-21,0.0145,0.017,0.00021025,0.000289
11:11:59,30-Sep-21,0.0145,0.017,0.00021025,0.000289
11:11:59,30-Sep-21,0.0145,0.017,0.00021025,0.000289
11:11:59,30-Sep-21,0.0145,0.017,0.00021025,0.000289
11:11:59,30-Sep-21,0.0145,0.017,0.00021025,0.000289
11:11:59,30-Sep-21,0.0145,0.017,0.00021025,0.000289
11:11:59,30-Sep-21,0.0145,0.017,0.00021025,0.000289
11:11:59,30-Sep-21,0.0145,0.017,0.00021025,0.000289
11:11:59,30-Sep-21,0.0145,0.017,0.00021025,0.000289
11:11:59,30-Sep-21,0.0145,0.017,0.00021025,0.000289
11:11:59,30-Sep-21,0.0145,0.017,0.00021025,0.000289
11:11:59,30-Sep-21,0.0145,0.017,0.00021025,0.000289
11:11:59,30-Sep-21,0.0145,0.017,0.00021025,0.000289
11:11:59,30-Sep-21,0.0145,0.017,0.00021025,0.000289
11:11:59,30-Sep-21,0.0145,0.017,0.00021025,0.000289
11:11:59,30-Sep-21,0.0145,0.017,0.00021025,0.000289
11:11:59,30-Sep-21,0.0145,0.017,0.00021025,0.000289
11:11:59,30-Sep-21,0.0195,0.017,0.00038025,0.000289
11:11:59,30-Sep-21,0.0195,0.018,0.00038025,0.000324
11:12:00,30-Sep-21,0.0195,0.018,0.00038025,0.000324
11:12:00,30-Sep-21,0.0195,0.018,0.00038025,0.000324
11:12:00,30-Sep-21,0.0195,0.018,0.00038025,0.000324
11:12:00,30-Sep-21,0.0195,0.018,0.00038025,0.000324
11:12:00,30-Sep-21,0.0195,0.018,0.00038025,0.000324
11:12:00,30-Sep-21,0.0245,0.018,0.00060025,0.000324
11:12:00,30-Sep-21,0.0245,0.018,0.00060025,0.000324
11:12:00,30-Sep-21,0.0195,0.018,0.00038025,0.000324
11:12:00,30-Sep-21,0.0195,0.019,0.00038025,0.000361
11:12:00,30-Sep-21,0.0195,0.019,0.00038025,0.000361
11:12:00,30-Sep-21,0.0195,0.019,0.00038025,0.000361
11:12:00,30-Sep-21,0.0195,0.019,0.00038025,0.000361
11:12:00,30-Sep-21,0.0195,0.019,0.00038025,0.000361
11:12:00,30-Sep-21,0.0195,0.019,0.00038025,0.000361
11:12:00,30-Sep-21,0.0195,0.019,0.00038025,0.000361
11:12:00,30-Sep-21,0.0195,0.019,0.00038025,0.000361
11:12:00,30-Sep-21,0.0195,0.019,0.00038025,0.000361
11:12:00,30-Sep-21,0.0195,0.019,0.00038025,0.000361
11:12:00,30-Sep-21,0.0195,0.019,0.00038025,0.000361
11:12:00,30-Sep-21,0.0195,0.02,0.00038025,0.0004
11:12:00,30-Sep-21,0.0195,0.02,0.00038025,0.0004
11:12:00,30-Sep-21,0.0195,0.02,0.00038025,0.0004
11:12:00,30-Sep-21,0.0195,0.02,0.00038025,0.0004
11:12:00,30-Sep-21,0.0195,0.02,0.00038025,0.0004
11:12:00,30-Sep-21,0.0195,0.02,0.00038025,0.0004
11:12:00,30-Sep-21,0.0195,0.02,0.00038025,0.0004
11:12:00,30-Sep-21,0.0195,0.02,0.00038025,0.0004
11:12:00,30-Sep-21,0.0195,0.02,0.00038025,0.0004
11:12:00,30-Sep-21,0.0195,0.02,0.00038025,0.0004
11:12:00,30-Sep-21,0.0195,0.021,0.00038025,0.000441
11:12:00,30-Sep-21,0.0195,0.021,0.00038025,0.000441
11:12:00,30-Sep-21,0.0195,0.021,0.00038025,0.000441
11:12:00,30-Sep-21,0.0195,0.021,0.00038025,0.000441
11:12:00,30-Sep-21,0.0195,0.021,0.00038025,0.000441
11:12:00,30-Sep-21,0.0195,0.021,0.00038025,0.000441
11:12:00,30-Sep-21,0.0195,0.021,0.00038025,0.000441
11:12:00,30-Sep-21,0.0195,0.021,0.00038025,0.000441
11:12:00,30-Sep-21,0.0195,0.022,0.00038025,0.000484
11:12:00,30-Sep-21,0.0195,0.022,0.00038025,0.000484
11:12:00,30-Sep-21,0.0195,0.022,0.00038025,0.000484
11:12:00,30-Sep-21,0.0195,0.022,0.00038025,0.000484
11:12:00,30-Sep-21,0.0195,0.022,0.00038025,0.000484
11:12:00,30-Sep-21,0.0245,0.022,0.00060025,0.000484
11:12:00,30-Sep-21,0.0245,0.022,0.00060025,0.000484
11:12:00,30-Sep-21,0.0245,0.023,0.00060025,0.000529
11:12:00,30-Sep-21,0.0245,0.023,0.00060025,0.000529
11:12:00,30-Sep-21,0.0245,0.023,0.00060025,0.000529
11:12:00,30-Sep-21,0.0245,0.023,0.00060025,0.000529
11:12:00,30-Sep-21,0.0245,0.023,0.00060025,0.000529
11:12:00,30-Sep-21,0.0245,0.023,0.00060025,0.000529
11:12:00,30-Sep-21,0.0245,0.023,0.00060025,0.000529
11:12:00,30-Sep-21,0.0245,0.023,0.00060025,0.000529
11:12:00,30-Sep-21,0.0245,0.023,0.00060025,0.000529
11:12:00,30-Sep-21,0.0245,0.023,0.00060025,0.000529
11:12:00,30-Sep-21,0.0245,0.023,0.00060025,0.000529
11:12:00,30-Sep-21,0.0245,0.023,0.00060025,0.000529
11:12:00,30-Sep-21,0.0245,0.023,0.00060025,0.000529
11:12:00,30-Sep-21,0.0245,0.023,0.00060025,0.000529
11:12:00,30-Sep-21,0.0245,0.023,0.00060025,0.000529
11:12:00,30-Sep-21,0.0245,0.023,0.00060025,0.000529
11:12:00,30-Sep-21,0.0245,0.023,0.00060025,0.000529
11:12:00,30-Sep-21,0.0245,0.023,0.00060025,0.000529
11:12:00,30-Sep-21,0.0245,0.023,0.00060025,0.000529
11:12:00,30-Sep-21,0.0245,0.022,0.00060025,0.000484
11:12:00,30-Sep-21,0.0195,0.022,0.00038025,0.000484
11:12:00,30-Sep-21,0.0195,0.022,0.00038025,0.000484
11:12:00,30-Sep-21,0.0245,0.022,0.00060025,0.000484
11:12:00,30-Sep-21,0.0245,0.022,0.00060025,0.000484
11:12:00,30-Sep-21,0.0195,0.022,0.00038025,0.000484
11:12:00,30-Sep-21,0.0195,0.022,0.00038025,0.000484
11:12:00,30-Sep-21,0.0195,0.022,0.00038025,0.000484
11:12:00,30-Sep-21,0.0195,0.022,0.00038025,0.000484
11:12:00,30-Sep-21,0.0195,0.022,0.00038025,0.000484
11:12:00,30-Sep-21,0.0195,0.022,0.00038025,0.000484
11:12:00,30-Sep-21,0.0195,0.022,0.00038025,0.000484
11:12:00,30-Sep-21,0.0195,0.022,0.00038025,0.000484
11:12:00,30-Sep-21,0.0195,0.022,0.00038025,0.000484
11:12:00,30-Sep-21,0.0195,0.022,0.00038025,0.000484
11:12:00,30-Sep-21,0.0195,0.022,0.00038025,0.000484
11:12:00,30-Sep-21,0.0195,0.022,0.00038025,0.000484
11:12:00,30-Sep-21,0.0195,0.022,0.00038025,0.000484
11:12:00,30-Sep-21,0.0195,0.022,0.00038025,0.000484
11:12:00,30-Sep-21,0.0195,0.022,0.00038025,0.000484
11:12:00,30-Sep-21,0.0195,0.022,0.00038025,0.000484
11:12:00,30-Sep-21,0.0195,0.022,0.00038025,0.000484
11:12:00,30-Sep-21,0.0245,0.022,0.00060025,0.000484
11:12:00,30-Sep-21,0.0245,0.022,0.00060025,0.000484
11:12:00,30-Sep-21,0.0245,0.022,0.00060025,0.000484
11:12:00,30-Sep-21,0.0245,0.022,0.00060025,0.000484
11:12:00,30-Sep-21,0.0245,0.022,0.00060025,0.000484
11:12:00,30-Sep-21,0.0245,0.022,0.00060025,0.000484
11:12:00,30-Sep-21,0.0245,0.022,0.00060025,0.000484
11:12:00,30-Sep-21,0.0245,0.023,0.00060025,0.000529
11:12:00,30-Sep-21,0.0245,0.023,0.00060025,0.000529
11:12:00,30-Sep-21,0.0245,0.023,0.00060025,0.000529
11:12:00,30-Sep-21,0.0245,0.023,0.00060025,0.000529
11:12:00,30-Sep-21,0.0245,0.023,0.00060025,0.000529
11:12:00,30-Sep-21,0.0245,0.023,0.00060025,0.000529
11:12:00,30-Sep-21,0.0245,0.023,0.00060025,0.000529
11:12:00,30-Sep-21,0.0245,0.023,0.00060025,0.000529
11:12:00,30-Sep-21,0.0245,0.023,0.00060025,0.000529
11:12:00,30-Sep-21,0.0245,0.023,0.00060025,0.000529
11:12:00,30-Sep-21,0.0245,0.023,0.00060025,0.000529
11:12:00,30-Sep-21,0.0245,0.023,0.00060025,0.000529
11:12:00,30-Sep-21,0.0245,0.023,0.00060025,0.000529
11:12:00,30-Sep-21,0.0245,0.023,0.00060025,0.000529
11:12:01,30-Sep-21,0.0195,0.023,0.00038025,0.000529
11:12:01,30-Sep-21,0.0195,0.023,0.00038025,0.000529
11:12:01,30-Sep-21,0.0245,0.023,0.00060025,0.000529
11:12:01,30-Sep-21,0.0245,0.023,0.00060025,0.000529
11:12:01,30-Sep-21,0.0195,0.023,0.00038025,0.000529
11:12:01,30-Sep-21,0.0195,0.023,0.00038025,0.000529
11:12:01,30-Sep-21,0.0195,0.023,0.00038025,0.000529
11:12:01,30-Sep-21,0.0195,0.023,0.00038025,0.000529
11:12:01,30-Sep-21,0.0195,0.023,0.00038025,0.000529
11:12:01,30-Sep-21,0.0195,0.023,0.00038025,0.000529
11:12:01,30-Sep-21,0.0245,0.023,0.00060025,0.000529
11:12:01,30-Sep-21,0.0195,0.023,0.00038025,0.000529
11:12:01,30-Sep-21,0.0245,0.023,0.00060025,0.000529
11:12:01,30-Sep-21,0.0245,0.024,0.00060025,0.000576
11:12:01,30-Sep-21,0.0245,0.024,0.00060025,0.000576
11:12:01,30-Sep-21,0.0245,0.024,0.00060025,0.000576
11:12:01,30-Sep-21,0.0245,0.024,0.00060025,0.000576
11:12:01,30-Sep-21,0.0245,0.024,0.00060025,0.000576
11:12:01,30-Sep-21,0.0245,0.023,0.00060025,0.000529
11:12:01,30-Sep-21,0.0245,0.023,0.00060025,0.000529
11:12:01,30-Sep-21,0.0245,0.023,0.00060025,0.000529
11:12:01,30-Sep-21,0.0245,0.023,0.00060025,0.000529
11:12:01,30-Sep-21,0.0245,0.023,0.00060025,0.000529
11:12:01,30-Sep-21,0.0245,0.023,0.00060025,0.000529
11:12:01,30-Sep-21,0.0245,0.023,0.00060025,0.000529
11:12:01,30-Sep-21,0.0245,0.023,0.00060025,0.000529
11:12:01,30-Sep-21,0.0245,0.023,0.00060025,0.000529
11:12:01,30-Sep-21,0.0245,0.023,0.00060025,0.000529
11:12:01,30-Sep-21,0.0245,0.023,0.00060025,0.000529
11:12:01,30-Sep-21,0.0245,0.023,0.00060025,0.000529
11:12:01,30-Sep-21,0.0245,0.023,0.00060025,0.000529
11:12:01,30-Sep-21,0.0245,0.023,0.00060025,0.000529
11:12:01,30-Sep-21,0.0245,0.022,0.00060025,0.000484
11:12:01,30-Sep-21,0.0195,0.022,0.00038025,0.000484
11:12:01,30-Sep-21,0.0195,0.022,0.00038025,0.000484
11:12:01,30-Sep-21,0.0245,0.022,0.00060025,0.000484
11:12:01,30-Sep-21,0.0245,0.022,0.00060025,0.000484
11:12:01,30-Sep-21,0.0245,0.022,0.00060025,0.000484
11:12:01,30-Sep-21,0.0195,0.022,0.00038025,0.000484
11:12:01,30-Sep-21,0.0195,0.021,0.00038025,0.000441
11:12:01,30-Sep-21,0.0195,0.021,0.00038025,0.000441
11:12:01,30-Sep-21,0.0195,0.021,0.00038025,0.000441
11:12:01,30-Sep-21,0.0195,0.021,0.00038025,0.000441
11:12:01,30-Sep-21,0.0195,0.021,0.00038025,0.000441
11:12:01,30-Sep-21,0.0195,0.021,0.00038025,0.000441
11:12:01,30-Sep-21,0.0195,0.021,0.00038025,0.000441
11:12:01,30-Sep-21,0.0195,0.021,0.00038025,0.000441
11:12:01,30-Sep-21,0.0195,0.02,0.00038025,0.0004
11:12:01,30-Sep-21,0.0195,0.02,0.00038025,0.0004
11:12:01,30-Sep-21,0.0195,0.02,0.00038025,0.0004
11:12:01,30-Sep-21,0.0195,0.02,0.00038025,0.0004
11:12:01,30-Sep-21,0.0195,0.02,0.00038025,0.0004
11:12:01,30-Sep-21,0.0195,0.02,0.00038025,0.0004
11:12:01,30-Sep-21,0.0195,0.02,0.00038025,0.0004
11:12:01,30-Sep-21,0.0195,0.02,0.00038025,0.0004
11:12:01,30-Sep-21,0.0195,0.02,0.00038025,0.0004
11:12:01,30-Sep-21,0.0195,0.02,0.00038025,0.0004
11:12:01,30-Sep-21,0.0195,0.02,0.00038025,0.0004
11:12:01,30-Sep-21,0.0195,0.02,0.00038025,0.0004
11:12:01,30-Sep-21,0.0195,0.02,0.00038025,0.0004
11:12:01,30-Sep-21,0.0195,0.02,0.00038025,0.0004
11:12:01,30-Sep-21,0.0195,0.02,0.00038025,0.0004
11:12:01,30-Sep-21,0.0195,0.02,0.00038025,0.0004
11:12:01,30-Sep-21,0.0195,0.02,0.00038025,0.0004
11:12:01,30-Sep-21,0.0195,0.02,0.00038025,0.0004
11:12:01,30-Sep-21,0.0195,0.02,0.00038025,0.0004
11:12:01,30-Sep-21,0.0195,0.02,0.00038025,0.0004
11:12:01,30-Sep-21,0.0195,0.02,0.00038025,0.0004
11:12:01,30-Sep-21,0.0245,0.02,0.00060025,0.0004
11:12:01,30-Sep-21,0.0245,0.02,0.00060025,0.0004
11:12:01,30-Sep-21,0.0245,0.02,0.00060025,0.0004
11:12:01,30-Sep-21,0.0195,0.02,0.00038025,0.0004
11:12:01,30-Sep-21,0.0195,0.02,0.00038025,0.0004
11:12:01,30-Sep-21,0.0195,0.02,0.00038025,0.0004
11:12:01,30-Sep-21,0.0245,0.02,0.00060025,0.0004
11:12:01,30-Sep-21,0.0245,0.02,0.00060025,0.0004
11:12:01,30-Sep-21,0.0195,0.02,0.00038025,0.0004
11:12:01,30-Sep-21,0.0195,0.019,0.00038025,0.000361
11:12:01,30-Sep-21,0.0195,0.019,0.00038025,0.000361
11:12:01,30-Sep-21,0.0195,0.019,0.00038025,0.000361
11:12:01,30-Sep-21,0.0195,0.019,0.00038025,0.000361
11:12:01,30-Sep-21,0.0195,0.019,0.00038025,0.000361
11:12:01,30-Sep-21,0.0145,0.019,0.00021025,0.000361
11:12:01,30-Sep-21,0.0195,0.018,0.00038025,0.000324
11:12:01,30-Sep-21,0.0195,0.018,0.00038025,0.000324
11:12:01,30-Sep-21,0.0195,0.018,0.00038025,0.000324
11:12:01,30-Sep-21,0.0195,0.018,0.00038025,0.000324
11:12:01,30-Sep-21,0.0195,0.018,0.00038025,0.000324
11:12:01,30-Sep-21,0.0195,0.017,0.00038025,0.000289
11:12:01,30-Sep-21,0.0145,0.017,0.00021025,0.000289
11:12:01,30-Sep-21,0.0145,0.017,0.00021025,0.000289
11:12:01,30-Sep-21,0.0145,0.017,0.00021025,0.000289
11:12:01,30-Sep-21,0.0145,0.016,0.00021025,0.000256
11:12:01,30-Sep-21,0.0145,0.016,0.00021025,0.000256
11:12:01,30-Sep-21,0.0145,0.016,0.00021025,0.000256
11:12:01,30-Sep-21,0.0145,0.016,0.00021025,0.000256
11:12:01,30-Sep-21,0.0145,0.016,0.00021025,0.000256
11:12:01,30-Sep-21,0.0145,0.016,0.00021025,0.000256
11:12:01,30-Sep-21,0.0145,0.015,0.00021025,0.000225
11:12:01,30-Sep-21,0.0145,0.015,0.00021025,0.000225
11:12:01,30-Sep-21,0.0145,0.015,0.00021025,0.000225
11:12:01,30-Sep-21,0.0145,0.015,0.00021025,0.000225
11:12:02,30-Sep-21,0.0145,0.015,0.00021025,0.000225
11:12:02,30-Sep-21,0.0145,0.015,0.00021025,0.000225
11:12:02,30-Sep-21,0.0145,0.015,0.00021025,0.000225
11:12:02,30-Sep-21,0.0145,0.015,0.00021025,0.000225
11:12:02,30-Sep-21,0.0145,0.014,0.00021025,0.000196
11:12:02,30-Sep-21,0.0145,0.014,0.00021025,0.000196
11:12:02,30-Sep-21,0.0145,0.014,0.00021025,0.000196
11:12:02,30-Sep-21,0.0145,0.014,0.00021025,0.000196
11:12:02,30-Sep-21,0.0145,0.014,0.00021025,0.000196
11:12:02,30-Sep-21,0.0145,0.014,0.00021025,0.000196
11:12:02,30-Sep-21,0.0145,0.014,0.00021025,0.000196
11:12:02,30-Sep-21,0.0145,0.014,0.00021025,0.000196
11:12:02,30-Sep-21,0.0145,0.014,0.00021025,0.000196
11:12:02,30-Sep-21,0.0145,0.014,0.00021025,0.000196
11:12:02,30-Sep-21,0.0145,0.014,0.00021025,0.000196
11:12:02,30-Sep-21,0.0145,0.014,0.00021025,0.000196
11:12:02,30-Sep-21,0.0145,0.014,0.00021025,0.000196
11:12:02,30-Sep-21,0.0145,0.014,0.00021025,0.000196
11:12:02,30-Sep-21,0.0145,0.014,0.00021025,0.000196
11:12:02,30-Sep-21,0.0145,0.014,0.00021025,0.000196
11:12:02,30-Sep-21,0.0145,0.014,0.00021025,0.000196
11:12:02,30-Sep-21,0.0145,0.014,0.00021025,0.000196
11:12:02,30-Sep-21,0.0145,0.014,0.00021025,0.000196
11:12:02,30-Sep-21,0.0145,0.014,0.00021025,0.000196
11:12:02,30-Sep-21,0.0145,0.014,0.00021025,0.000196
11:12:02,30-Sep-21,0.0145,0.014,0.00021025,0.000196
11:12:02,30-Sep-21,0.0145,0.014,0.00021025,0.000196
11:12:02,30-Sep-21,0.0145,0.014,0.00021025,0.000196
11:12:02,30-Sep-21,0.0145,0.014,0.00021025,0.000196
11:12:02,30-Sep-21,0.0145,0.014,0.00021025,0.000196
11:12:02,30-Sep-21,0.0145,0.014,0.00021025,0.000196
11:12:02,30-Sep-21,0.0145,0.014,0.00021025,0.000196
11:12:02,30-Sep-21,0.0145,0.014,0.00021025,0.000196
11:12:02,30-Sep-21,0.0145,0.014,0.00021025,0.000196
11:12:02,30-Sep-21,0.0145,0.015,0.00021025,0.000225
11:12:02,30-Sep-21,0.0145,0.015,0.00021025,0.000225
11:12:02,30-Sep-21,0.0145,0.015,0.00021025,0.000225
11:12:02,30-Sep-21,0.0145,0.015,0.00021025,0.000225
11:12:02,30-Sep-21,0.0145,0.015,0.00021025,0.000225
11:12:02,30-Sep-21,0.0145,0.015,0.00021025,0.000225
11:12:02,30-Sep-21,0.0145,0.015,0.00021025,0.000225
11:12:02,30-Sep-21,0.0145,0.015,0.00021025,0.000225
11:12:02,30-Sep-21,0.0145,0.015,0.00021025,0.000225
11:12:02,30-Sep-21,0.0145,0.015,0.00021025,0.000225
11:12:02,30-Sep-21,0.0145,0.015,0.00021025,0.000225
11:12:02,30-Sep-21,0.0145,0.015,0.00021025,0.000225
11:12:02,30-Sep-21,0.0145,0.015,0.00021025,0.000225
11:12:02,30-Sep-21,0.0145,0.015,0.00021025,0.000225
11:12:02,30-Sep-21,0.0145,0.015,0.00021025,0.000225
11:12:02,30-Sep-21,0.0145,0.015,0.00021025,0.000225
11:12:02,30-Sep-21,0.0145,0.015,0.00021025,0.000225
11:12:02,30-Sep-21,0.0145,0.015,0.00021025,0.000225
11:12:02,30-Sep-21,0.0145,0.015,0.00021025,0.000225
11:12:02,30-Sep-21,0.0145,0.015,0.00021025,0.000225
11:12:02,30-Sep-21,0.0145,0.015,0.00021025,0.000225
11:12:02,30-Sep-21,0.0145,0.015,0.00021025,0.000225
11:12:02,30-Sep-21,0.0145,0.015,0.00021025,0.000225
11:12:02,30-Sep-21,0.0145,0.015,0.00021025,0.000225
11:12:02,30-Sep-21,0.0145,0.015,0.00021025,0.000225
11:12:02,30-Sep-21,0.0145,0.015,0.00021025,0.000225
11:12:02,30-Sep-21,0.0145,0.015,0.00021025,0.000225
11:12:02,30-Sep-21,0.0145,0.014,0.00021025,0.000196
11:12:02,30-Sep-21,0.0145,0.014,0.00021025,0.000196
11:12:02,30-Sep-21,0.0145,0.014,0.00021025,0.000196
11:12:02,30-Sep-21,0.0145,0.014,0.00021025,0.000196
11:12:02,30-Sep-21,0.0145,0.014,0.00021025,0.000196
11:12:02,30-Sep-21,0.0145,0.014,0.00021025,0.000196
11:12:02,30-Sep-21,0.0145,0.014,0.00021025,0.000196
11:12:02,30-Sep-21,0.0145,0.014,0.00021025,0.000196
11:12:02,30-Sep-21,0.0145,0.014,0.00021025,0.000196
11:12:02,30-Sep-21,0.0145,0.014,0.00021025,0.000196
11:12:02,30-Sep-21,0.0145,0.014,0.00021025,0.000196
11:12:02,30-Sep-21,0.0145,0.014,0.00021025,0.000196
11:12:02,30-Sep-21,0.0145,0.014,0.00021025,0.000196
11:12:02,30-Sep-21,0.01,0.014,0.0001,0.000196
11:12:02,30-Sep-21,0.01,0.014,0.0001,0.000196
11:12:02,30-Sep-21,0.0145,0.014,0.00021025,0.000196
11:12:02,30-Sep-21,0.0145,0.014,0.00021025,0.000196
11:12:02,30-Sep-21,0.0145,0.014,0.00021025,0.000196
11:12:02,30-Sep-21,0.0145,0.014,0.00021025,0.000196
11:12:02,30-Sep-21,0.0145,0.014,0.00021025,0.000196
11:12:02,30-Sep-21,0.0145,0.013,0.00021025,0.000169
11:12:02,30-Sep-21,0.0145,0.013,0.00021025,0.000169
11:12:02,30-Sep-21,0.0145,0.013,0.00021025,0.000169
11:12:02,30-Sep-21,0.0145,0.013,0.00021025,0.000169
11:12:02,30-Sep-21,0.0145,0.013,0.00021025,0.000169
11:12:02,30-Sep-21,0.0145,0.013,0.00021025,0.000169
11:12:02,30-Sep-21,0.0145,0.013,0.00021025,0.000169
11:12:02,30-Sep-21,0.0145,0.013,0.00021025,0.000169
11:12:02,30-Sep-21,0.0145,0.013,0.00021025,0.000169
11:12:02,30-Sep-21,0.0145,0.013,0.00021025,0.000169
11:12:02,30-Sep-21,0.01,0.013,0.0001,0.000169
11:12:02,30-Sep-21,0.01,0.013,0.0001,0.000169
11:12:02,30-Sep-21,0.0145,0.013,0.00021025,0.000169
11:12:02,30-Sep-21,0.0145,0.013,0.00021025,0.000169
11:12:02,30-Sep-21,0.0145,0.013,0.00021025,0.000169
11:12:02,30-Sep-21,0.01,0.013,0.0001,0.000169
11:12:02,30-Sep-21,0.01,0.013,0.0001,0.000169
11:12:02,30-Sep-21,0.01,0.012,0.0001,0.000144
11:12:02,30-Sep-21,0.01,0.012,0.0001,0.000144
11:12:02,30-Sep-21,0.01,0.012,0.0001,0.000144
11:12:02,30-Sep-21,0.0145,0.013,0.00021025,0.000169
11:12:02,30-Sep-21,0.01,0.013,0.0001,0.000169
11:12:03,30-Sep-21,0.01,0.013,0.0001,0.000169
11:12:03,30-Sep-21,0.01,0.013,0.0001,0.000169
11:12:03,30-Sep-21,0.01,0.013,0.0001,0.000169
11:12:03,30-Sep-21,0.01,0.013,0.0001,0.000169
11:12:03,30-Sep-21,0.01,0.013,0.0001,0.000169
11:12:03,30-Sep-21,0.01,0.013,0.0001,0.000169
11:12:03,30-Sep-21,0.0145,0.013,0.00021025,0.000169
11:12:03,30-Sep-21,0.0145,0.013,0.00021025,0.000169
11:12:03,30-Sep-21,0.0145,0.013,0.00021025,0.000169
11:12:03,30-Sep-21,0.0145,0.013,0.00021025,0.000169
11:12:03,30-Sep-21,0.0145,0.013,0.00021025,0.000169
11:12:03,30-Sep-21,0.0145,0.013,0.00021025,0.000169
11:12:03,30-Sep-21,0.0145,0.013,0.00021025,0.000169
11:12:03,30-Sep-21,0.0145,0.013,0.00021025,0.000169
11:12:03,30-Sep-21,0.0145,0.013,0.00021025,0.000169
11:12:03,30-Sep-21,0.0145,0.013,0.00021025,0.000169
11:12:03,30-Sep-21,0.0145,0.013,0.00021025,0.000169
11:12:03,30-Sep-21,0.0145,0.013,0.00021025,0.000169
11:12:03,30-Sep-21,0.0145,0.013,0.00021025,0.000169
11:12:03,30-Sep-21,0.0145,0.013,0.00021025,0.000169
11:12:03,30-Sep-21,0.0145,0.013,0.00021025,0.000169
11:12:03,30-Sep-21,0.0145,0.013,0.00021025,0.000169
11:12:03,30-Sep-21,0.0145,0.013,0.00021025,0.000169
11:12:03,30-Sep-21,0.0145,0.013,0.00021025,0.000169
11:12:03,30-Sep-21,0.0145,0.013,0.00021025,0.000169
11:12:03,30-Sep-21,0.0145,0.013,0.00021025,0.000169
11:12:03,30-Sep-21,0.0145,0.013,0.00021025,0.000169
11:12:03,30-Sep-21,0.0145,0.013,0.00021025,0.000169
11:12:03,30-Sep-21,0.0145,0.013,0.00021025,0.000169
11:12:03,30-Sep-21,0.0145,0.013,0.00021025,0.000169
11:12:03,30-Sep-21,0.01,0.013,0.0001,0.000169
11:12:03,30-Sep-21,0.01,0.013,0.0001,0.000169
11:12:03,30-Sep-21,0.01,0.013,0.0001,0.000169
11:12:03,30-Sep-21,0.01,0.013,0.0001,0.000169
11:12:03,30-Sep-21,0.01,0.013,0.0001,0.000169
11:12:03,30-Sep-21,0.01,0.013,0.0001,0.000169
11:12:03,30-Sep-21,0.01,0.012,0.0001,0.000144
11:12:03,30-Sep-21,0.0145,0.012,0.00021025,0.000144
11:12:03,30-Sep-21,0.0145,0.012,0.00021025,0.000144
11:12:03,30-Sep-21,0.0145,0.012,0.00021025,0.000144
11:12:03,30-Sep-21,0.0145,0.012,0.00021025,0.000144
11:12:03,30-Sep-21,0.0145,0.012,0.00021025,0.000144
11:12:03,30-Sep-21,0.0145,0.012,0.00021025,0.000144
11:12:03,30-Sep-21,0.0145,0.012,0.00021025,0.000144
11:12:03,30-Sep-21,0.0145,0.012,0.00021025,0.000144
11:12:03,30-Sep-21,0.01,0.012,0.0001,0.000144
11:12:03,30-Sep-21,0.01,0.012,0.0001,0.000144
11:12:03,30-Sep-21,0.01,0.012,0.0001,0.000144
11:12:03,30-Sep-21,0.01,0.012,0.0001,0.000144
11:12:03,30-Sep-21,0.01,0.012,0.0001,0.000144
11:12:03,30-Sep-21,0.01,0.012,0.0001,0.000144
11:12:03,30-Sep-21,0.01,0.013,0.0001,0.000169
11:12:03,30-Sep-21,0.01,0.013,0.0001,0.000169
11:12:03,30-Sep-21,0.0145,0.013,0.00021025,0.000169
11:12:03,30-Sep-21,0.0145,0.013,0.00021025,0.000169
11:12:03,30-Sep-21,0.01,0.013,0.0001,0.000169
11:12:03,30-Sep-21,0.01,0.013,0.0001,0.000169
11:12:03,30-Sep-21,0.01,0.013,0.0001,0.000169
11:12:03,30-Sep-21,0.0145,0.014,0.00021025,0.000196
11:12:03,30-Sep-21,0.0145,0.014,0.00021025,0.000196
11:12:03,30-Sep-21,0.0145,0.014,0.00021025,0.000196
11:12:03,30-Sep-21,0.0145,0.014,0.00021025,0.000196
11:12:03,30-Sep-21,0.0145,0.014,0.00021025,0.000196
11:12:03,30-Sep-21,0.0145,0.014,0.00021025,0.000196
11:12:03,30-Sep-21,0.0145,0.015,0.00021025,0.000225
11:12:03,30-Sep-21,0.0145,0.015,0.00021025,0.000225
11:12:03,30-Sep-21,0.0145,0.015,0.00021025,0.000225
11:12:03,30-Sep-21,0.0145,0.015,0.00021025,0.000225
11:12:03,30-Sep-21,0.0145,0.015,0.00021025,0.000225
11:12:03,30-Sep-21,0.0145,0.015,0.00021025,0.000225
11:12:03,30-Sep-21,0.0195,0.016,0.00038025,0.000256
11:12:03,30-Sep-21,0.0195,0.016,0.00038025,0.000256
11:12:03,30-Sep-21,0.0195,0.016,0.00038025,0.000256
11:12:03,30-Sep-21,0.0195,0.016,0.00038025,0.000256
11:12:03,30-Sep-21,0.0195,0.016,0.00038025,0.000256
11:12:03,30-Sep-21,0.0145,0.016,0.00021025,0.000256
11:12:03,30-Sep-21,0.0145,0.016,0.00021025,0.000256
11:12:03,30-Sep-21,0.0195,0.016,0.00038025,0.000256
11:12:03,30-Sep-21,0.0195,0.016,0.00038025,0.000256
11:12:03,30-Sep-21,0.0195,0.016,0.00038025,0.000256
11:12:03,30-Sep-21,0.0145,0.016,0.00021025,0.000256
11:12:03,30-Sep-21,0.0145,0.016,0.00021025,0.000256
11:12:03,30-Sep-21,0.0195,0.016,0.00038025,0.000256
11:12:03,30-Sep-21,0.0195,0.016,0.00038025,0.000256
11:12:03,30-Sep-21,0.0145,0.016,0.00021025,0.000256
11:12:03,30-Sep-21,0.0145,0.016,0.00021025,0.000256
11:12:03,30-Sep-21,0.0145,0.016,0.00021025,0.000256
11:12:03,30-Sep-21,0.0145,0.016,0.00021025,0.000256
11:12:03,30-Sep-21,0.0145,0.016,0.00021025,0.000256
11:12:03,30-Sep-21,0.0145,0.016,0.00021025,0.000256
11:12:03,30-Sep-21,0.0145,0.016,0.00021025,0.000256
11:12:03,30-Sep-21,0.0145,0.016,0.00021025,0.000256
11:12:03,30-Sep-21,0.0145,0.016,0.00021025,0.000256
11:12:03,30-Sep-21,0.0145,0.016,0.00021025,0.000256
11:12:03,30-Sep-21,0.0145,0.016,0.00021025,0.000256
11:12:03,30-Sep-21,0.0145,0.016,0.00021025,0.000256
11:12:03,30-Sep-21,0.0145,0.016,0.00021025,0.000256
11:12:04,30-Sep-21,0.0145,0.016,0.00021025,0.000256
11:12:04,30-Sep-21,0.0195,0.016,0.00038025,0.000256
11:12:04,30-Sep-21,0.0195,0.016,0.00038025,0.000256
11:12:04,30-Sep-21,0.0195,0.016,0.00038025,0.000256
11:12:04,30-Sep-21,0.0195,0.016,0.00038025,0.000256
11:12:04,30-Sep-21,0.0145,0.016,0.00021025,0.000256
11:12:04,30-Sep-21,0.0145,0.015,0.00021025,0.000225
11:12:04,30-Sep-21,0.0145,0.015,0.00021025,0.000225
11:12:04,30-Sep-21,0.0145,0.015,0.00021025,0.000225
11:12:04,30-Sep-21,0.0145,0.015,0.00021025,0.000225
11:12:04,30-Sep-21,0.0145,0.015,0.00021025,0.000225
11:12:04,30-Sep-21,0.0145,0.015,0.00021025,0.000225
11:12:04,30-Sep-21,0.0145,0.015,0.00021025,0.000225
11:12:04,30-Sep-21,0.0145,0.015,0.00021025,0.000225
11:12:04,30-Sep-21,0.0145,0.015,0.00021025,0.000225
11:12:04,30-Sep-21,0.0145,0.015,0.00021025,0.000225
11:12:04,30-Sep-21,0.0145,0.015,0.00021025,0.000225
11:12:04,30-Sep-21,0.0145,0.015,0.00021025,0.000225
11:12:04,30-Sep-21,0.0145,0.015,0.00021025,0.000225
11:12:04,30-Sep-21,0.0145,0.015,0.00021025,0.000225
11:12:04,30-Sep-21,0.0145,0.015,0.00021025,0.000225
11:12:04,30-Sep-21,0.0145,0.014,0.00021025,0.000196
11:12:04,30-Sep-21,0.0145,0.014,0.00021025,0.000196
11:12:04,30-Sep-21,0.0145,0.014,0.00021025,0.000196
11:12:04,30-Sep-21,0.0145,0.014,0.00021025,0.000196
11:12:04,30-Sep-21,0.0145,0.014,0.00021025,0.000196
11:12:04,30-Sep-21,0.0145,0.014,0.00021025,0.000196
11:12:04,30-Sep-21,0.0145,0.014,0.00021025,0.000196
11:12:04,30-Sep-21,0.0145,0.014,0.00021025,0.000196
11:12:04,30-Sep-21,0.0145,0.014,0.00021025,0.000196
11:12:04,30-Sep-21,0.0145,0.014,0.00021025,0.000196
11:12:04,30-Sep-21,0.0145,0.014,0.00021025,0.000196
11:12:04,30-Sep-21,0.0145,0.014,0.00021025,0.000196
11:12:04,30-Sep-21,0.0145,0.014,0.00021025,0.000196
11:12:04,30-Sep-21,0.0145,0.014,0.00021025,0.000196
11:12:04,30-Sep-21,0.0145,0.014,0.00021025,0.000196
11:12:04,30-Sep-21,0.0145,0.014,0.00021025,0.000196
11:12:04,30-Sep-21,0.0145,0.014,0.00021025,0.000196
11:12:04,30-Sep-21,0.0145,0.014,0.00021025,0.000196
11:12:04,30-Sep-21,0.0145,0.014,0.00021025,0.000196
11:12:04,30-Sep-21,0.0145,0.013,0.00021025,0.000169
11:12:04,30-Sep-21,0.01,0.013,0.0001,0.000169
11:12:04,30-Sep-21,0.01,0.013,0.0001,0.000169
11:12:04,30-Sep-21,0.01,0.013,0.0001,0.000169
11:12:04,30-Sep-21,0.0145,0.013,0.00021025,0.000169
11:12:04,30-Sep-21,0.0145,0.013,0.00021025,0.000169
11:12:04,30-Sep-21,0.0145,0.013,0.00021025,0.000169
