Time,Date,EMG Value (V),Filtered Value (V),,
10:10:47,30-Sep-21,3.035,3.031,9.211225,9.186961
10:10:47,30-Sep-21,3.035,3.038,9.211225,9.229444
10:10:47,30-Sep-21,3.035,3.044,9.211225,9.265936
10:10:47,30-Sep-21,3.0745,3.051,9.45255025,9.308601
10:10:47,30-Sep-21,3.1035,3.057,9.63171225,9.345249
10:10:47,30-Sep-21,3.167,3.064,10.029889,9.388096
10:10:47,30-Sep-21,3.177,3.07,10.093329,9.4249
10:10:47,30-Sep-21,3.177,3.077,10.093329,9.467929
10:10:47,30-Sep-21,3.172,3.083,10.061584,9.504889
10:10:47,30-Sep-21,3.172,3.089,10.061584,9.541921
10:10:47,30-Sep-21,3.167,3.094,10.029889,9.572836
10:10:47,30-Sep-21,3.167,3.1,10.029889,9.61
10:10:47,30-Sep-21,3.128,3.105,9.784384,9.641025
10:10:47,30-Sep-21,3.128,3.11,9.784384,9.6721
10:10:47,30-Sep-21,3.128,3.115,9.784384,9.703225
10:10:47,30-Sep-21,3.123,3.12,9.753129,9.7344
10:10:47,30-Sep-21,3.123,3.124,9.753129,9.759376
10:10:47,30-Sep-21,3.123,3.129,9.753129,9.790641
10:10:47,30-Sep-21,3.1085,3.133,9.66277225,9.815689
10:10:47,30-Sep-21,3.1085,3.137,9.66277225,9.840769
10:10:47,30-Sep-21,3.1085,3.14,9.66277225,9.8596
10:10:47,30-Sep-21,3.1085,3.144,9.66277225,9.884736
10:10:47,30-Sep-21,3.1085,3.147,9.66277225,9.903609
10:10:47,30-Sep-21,3.1085,3.15,9.66277225,9.9225
10:10:47,30-Sep-21,3.1085,3.152,9.66277225,9.935104
10:10:47,30-Sep-21,3.1185,3.155,9.72504225,9.954025
10:10:47,30-Sep-21,3.1185,3.157,9.72504225,9.966649
10:10:47,30-Sep-21,3.1185,3.16,9.72504225,9.9856
10:10:47,30-Sep-21,3.1185,3.162,9.72504225,9.998244
10:10:47,30-Sep-21,3.182,3.164,10.125124,10.010896
10:10:47,30-Sep-21,3.182,3.165,10.125124,10.017225
10:10:47,30-Sep-21,3.182,3.167,10.125124,10.029889
10:10:47,30-Sep-21,3.2015,3.168,10.24960225,10.036224
10:10:47,30-Sep-21,3.2015,3.169,10.24960225,10.042561
10:10:47,30-Sep-21,3.2015,3.171,10.24960225,10.055241
10:10:47,30-Sep-21,3.211,3.172,10.310521,10.061584
10:10:47,30-Sep-21,3.211,3.172,10.310521,10.061584
10:10:47,30-Sep-21,3.211,3.173,10.310521,10.067929
10:10:47,30-Sep-21,3.2065,3.174,10.28164225,10.074276
10:10:47,30-Sep-21,3.2065,3.174,10.28164225,10.074276
10:10:47,30-Sep-21,3.2065,3.175,10.28164225,10.080625
10:10:47,30-Sep-21,3.2065,3.175,10.28164225,10.080625
10:10:47,30-Sep-21,3.172,3.176,10.061584,10.086976
10:10:47,30-Sep-21,3.172,3.176,10.061584,10.086976
10:10:47,30-Sep-21,3.172,3.176,10.061584,10.086976
10:10:47,30-Sep-21,3.172,3.177,10.061584,10.093329
10:10:47,30-Sep-21,3.1575,3.177,9.96980625,10.093329
10:10:47,30-Sep-21,3.1575,3.177,9.96980625,10.093329
10:10:47,30-Sep-21,3.1575,3.178,9.96980625,10.099684
10:10:47,30-Sep-21,3.1575,3.178,9.96980625,10.099684
10:10:47,30-Sep-21,3.1425,3.179,9.87530625,10.106041
10:10:47,30-Sep-21,3.1425,3.179,9.87530625,10.106041
10:10:47,30-Sep-21,3.1425,3.18,9.87530625,10.1124
10:10:47,30-Sep-21,3.123,3.18,9.753129,10.1124
10:10:47,30-Sep-21,3.123,3.181,9.753129,10.118761
10:10:47,30-Sep-21,3.123,3.182,9.753129,10.125124
10:10:47,30-Sep-21,3.128,3.183,9.784384,10.131489
10:10:47,30-Sep-21,3.128,3.183,9.784384,10.131489
10:10:47,30-Sep-21,3.1625,3.184,10.00140625,10.137856
10:10:47,30-Sep-21,3.1625,3.185,10.00140625,10.144225
10:10:47,30-Sep-21,3.1625,3.186,10.00140625,10.150596
10:10:47,30-Sep-21,3.1915,3.187,10.18567225,10.156969
10:10:47,30-Sep-21,3.1915,3.188,10.18567225,10.163344
10:10:47,30-Sep-21,3.1915,3.189,10.18567225,10.169721
10:10:47,30-Sep-21,3.1915,3.19,10.18567225,10.1761
10:10:47,30-Sep-21,3.1915,3.191,10.18567225,10.182481
10:10:47,30-Sep-21,3.25,3.192,10.5625,10.188864
10:10:47,30-Sep-21,3.25,3.192,10.5625,10.188864
10:10:47,30-Sep-21,3.25,3.193,10.5625,10.195249
10:10:47,30-Sep-21,3.25,3.194,10.5625,10.201636
10:10:47,30-Sep-21,3.2405,3.195,10.50084025,10.208025
10:10:47,30-Sep-21,3.2405,3.195,10.50084025,10.208025
10:10:47,30-Sep-21,3.2405,3.196,10.50084025,10.214416
10:10:47,30-Sep-21,3.2405,3.196,10.50084025,10.214416
10:10:47,30-Sep-21,3.226,3.196,10.407076,10.214416
10:10:47,30-Sep-21,3.226,3.197,10.407076,10.220809
10:10:47,30-Sep-21,3.226,3.197,10.407076,10.220809
10:10:47,30-Sep-21,3.211,3.197,10.310521,10.220809
10:10:47,30-Sep-21,3.211,3.197,10.310521,10.220809
10:10:47,30-Sep-21,3.211,3.197,10.310521,10.220809
10:10:47,30-Sep-21,3.211,3.197,10.310521,10.220809
10:10:47,30-Sep-21,3.211,3.197,10.310521,10.220809
10:10:47,30-Sep-21,3.167,3.197,10.029889,10.220809
10:10:47,30-Sep-21,3.167,3.197,10.029889,10.220809
10:10:47,30-Sep-21,3.167,3.197,10.029889,10.220809
10:10:47,30-Sep-21,3.1525,3.197,9.93825625,10.220809
10:10:47,30-Sep-21,3.1525,3.196,9.93825625,10.214416
10:10:47,30-Sep-21,3.1525,3.196,9.93825625,10.214416
10:10:47,30-Sep-21,3.1475,3.196,9.90675625,10.214416
10:10:47,30-Sep-21,3.1475,3.196,9.90675625,10.214416
10:10:47,30-Sep-21,3.1525,3.196,9.93825625,10.214416
10:10:47,30-Sep-21,3.1525,3.195,9.93825625,10.208025
10:10:47,30-Sep-21,3.1525,3.195,9.93825625,10.208025
10:10:47,30-Sep-21,3.1525,3.195,9.93825625,10.208025
10:10:47,30-Sep-21,3.1525,3.195,9.93825625,10.208025
10:10:47,30-Sep-21,3.216,3.195,10.342656,10.208025
10:10:47,30-Sep-21,3.216,3.195,10.342656,10.208025
10:10:47,30-Sep-21,3.2355,3.195,10.46846025,10.208025
10:10:47,30-Sep-21,3.2355,3.194,10.46846025,10.201636
10:10:47,30-Sep-21,3.25,3.194,10.5625,10.201636
10:10:47,30-Sep-21,3.25,3.194,10.5625,10.201636
10:10:47,30-Sep-21,3.25,3.194,10.5625,10.201636
10:10:47,30-Sep-21,3.2455,3.194,10.53327025,10.201636
10:10:47,30-Sep-21,3.2455,3.194,10.53327025,10.201636
10:10:47,30-Sep-21,3.2455,3.194,10.53327025,10.201636
10:10:47,30-Sep-21,3.2455,3.194,10.53327025,10.201636
10:10:47,30-Sep-21,3.2305,3.194,10.43613025,10.201636
10:10:47,30-Sep-21,3.1915,3.194,10.18567225,10.201636
10:10:47,30-Sep-21,3.1915,3.194,10.18567225,10.201636
10:10:47,30-Sep-21,3.1915,3.194,10.18567225,10.201636
10:10:47,30-Sep-21,3.1915,3.194,10.18567225,10.201636
10:10:47,30-Sep-21,3.182,3.194,10.125124,10.201636
10:10:47,30-Sep-21,3.182,3.194,10.125124,10.201636
10:10:47,30-Sep-21,3.1425,3.194,9.87530625,10.201636
10:10:47,30-Sep-21,3.1425,3.195,9.87530625,10.208025
10:10:47,30-Sep-21,3.138,3.195,9.847044,10.208025
10:10:47,30-Sep-21,3.138,3.195,9.847044,10.208025
10:10:47,30-Sep-21,3.138,3.195,9.847044,10.208025
10:10:47,30-Sep-21,3.138,3.196,9.847044,10.214416
10:10:47,30-Sep-21,3.138,3.196,9.847044,10.214416
10:10:47,30-Sep-21,3.1625,3.197,10.00140625,10.220809
10:10:47,30-Sep-21,3.1625,3.197,10.00140625,10.220809
10:10:47,30-Sep-21,3.1625,3.198,10.00140625,10.227204
10:10:47,30-Sep-21,3.1625,3.198,10.00140625,10.227204
10:10:47,30-Sep-21,3.182,3.198,10.125124,10.227204
10:10:47,30-Sep-21,3.182,3.199,10.125124,10.233601
10:10:47,30-Sep-21,3.182,3.199,10.125124,10.233601
10:10:47,30-Sep-21,3.182,3.199,10.125124,10.233601
10:10:47,30-Sep-21,3.2305,3.199,10.43613025,10.233601
10:10:47,30-Sep-21,3.2305,3.199,10.43613025,10.233601
10:10:47,30-Sep-21,3.2305,3.199,10.43613025,10.233601
10:10:47,30-Sep-21,3.2305,3.198,10.43613025,10.227204
10:10:47,30-Sep-21,3.2305,3.198,10.43613025,10.227204
10:10:47,30-Sep-21,3.226,3.197,10.407076,10.220809
10:10:47,30-Sep-21,3.226,3.196,10.407076,10.214416
10:10:47,30-Sep-21,3.226,3.195,10.407076,10.208025
10:10:47,30-Sep-21,3.226,3.193,10.407076,10.195249
10:10:47,30-Sep-21,3.216,3.192,10.342656,10.188864
10:10:47,30-Sep-21,3.216,3.19,10.342656,10.1761
10:10:47,30-Sep-21,3.216,3.188,10.342656,10.163344
10:10:47,30-Sep-21,3.216,3.186,10.342656,10.150596
10:10:47,30-Sep-21,3.216,3.183,10.342656,10.131489
10:10:47,30-Sep-21,3.216,3.181,10.342656,10.118761
10:10:47,30-Sep-21,3.216,3.178,10.342656,10.099684
10:10:47,30-Sep-21,3.216,3.174,10.342656,10.074276
10:10:47,30-Sep-21,3.216,3.171,10.342656,10.055241
10:10:47,30-Sep-21,3.1865,3.168,10.15378225,10.036224
10:10:47,30-Sep-21,3.1865,3.164,10.15378225,10.010896
10:10:47,30-Sep-21,3.1865,3.16,10.15378225,9.9856
10:10:47,30-Sep-21,3.1865,3.156,10.15378225,9.960336
10:10:47,30-Sep-21,3.1625,3.152,10.00140625,9.935104
10:10:47,30-Sep-21,3.1625,3.148,10.00140625,9.909904
10:10:47,30-Sep-21,3.1625,3.144,10.00140625,9.884736
10:10:47,30-Sep-21,3.1035,3.14,9.63171225,9.8596
10:10:47,30-Sep-21,3.1035,3.136,9.63171225,9.834496
10:10:47,30-Sep-21,3.1035,3.131,9.63171225,9.803161
10:10:47,30-Sep-21,3.1035,3.127,9.63171225,9.778129
10:10:47,30-Sep-21,3.0745,3.123,9.45255025,9.753129
10:10:47,30-Sep-21,3.0745,3.119,9.45255025,9.728161
10:10:47,30-Sep-21,3.0745,3.115,9.45255025,9.703225
10:10:47,30-Sep-21,3.0745,3.111,9.45255025,9.678321
10:10:47,30-Sep-21,3.05,3.107,9.3025,9.653449
10:10:47,30-Sep-21,3.05,3.103,9.3025,9.628609
10:10:48,30-Sep-21,3.05,3.1,9.3025,9.61
10:10:48,30-Sep-21,3.05,3.096,9.3025,9.585216
10:10:48,30-Sep-21,3.05,3.093,9.3025,9.566649
10:10:48,30-Sep-21,3.045,3.089,9.272025,9.541921
10:10:48,30-Sep-21,3.045,3.086,9.272025,9.523396
10:10:48,30-Sep-21,3.045,3.083,9.272025,9.504889
10:10:48,30-Sep-21,3.045,3.081,9.272025,9.492561
10:10:48,30-Sep-21,3.0985,3.078,9.60070225,9.474084
10:10:48,30-Sep-21,3.0985,3.076,9.60070225,9.461776
10:10:48,30-Sep-21,3.0985,3.073,9.60070225,9.443329
10:10:48,30-Sep-21,3.1085,3.071,9.66277225,9.431041
10:10:48,30-Sep-21,3.1085,3.069,9.66277225,9.418761
10:10:48,30-Sep-21,3.1085,3.067,9.66277225,9.406489
10:10:48,30-Sep-21,3.1085,3.065,9.66277225,9.394225
10:10:48,30-Sep-21,3.1135,3.064,9.69388225,9.388096
10:10:48,30-Sep-21,3.1135,3.062,9.69388225,9.375844
10:10:48,30-Sep-21,3.1135,3.061,9.69388225,9.369721
10:10:48,30-Sep-21,3.1135,3.06,9.69388225,9.3636
10:10:48,30-Sep-21,3.1135,3.059,9.69388225,9.357481
10:10:48,30-Sep-21,3.1035,3.058,9.63171225,9.351364
10:10:48,30-Sep-21,3.1035,3.057,9.63171225,9.345249
10:10:48,30-Sep-21,3.1035,3.057,9.63171225,9.345249
10:10:48,30-Sep-21,3.089,3.056,9.541921,9.339136
10:10:48,30-Sep-21,3.089,3.056,9.541921,9.339136
10:10:48,30-Sep-21,3.045,3.056,9.272025,9.339136
10:10:48,30-Sep-21,3.045,3.056,9.272025,9.339136
10:10:48,30-Sep-21,3.045,3.057,9.272025,9.345249
10:10:48,30-Sep-21,3.0255,3.058,9.15365025,9.351364
10:10:48,30-Sep-21,3.0255,3.058,9.15365025,9.351364
10:10:48,30-Sep-21,2.996,3.06,8.976016,9.3636
10:10:48,30-Sep-21,2.996,3.061,8.976016,9.369721
10:10:48,30-Sep-21,2.996,3.062,8.976016,9.375844
10:10:48,30-Sep-21,2.996,3.064,8.976016,9.388096
10:10:48,30-Sep-21,2.996,3.066,8.976016,9.400356
10:10:48,30-Sep-21,2.996,3.068,8.976016,9.412624
10:10:48,30-Sep-21,2.996,3.071,8.976016,9.431041
10:10:48,30-Sep-21,3.0255,3.073,9.15365025,9.443329
10:10:48,30-Sep-21,3.0255,3.076,9.15365025,9.461776
10:10:48,30-Sep-21,3.0255,3.079,9.15365025,9.480241
10:10:48,30-Sep-21,3.0695,3.082,9.42183025,9.498724
10:10:48,30-Sep-21,3.0695,3.085,9.42183025,9.517225
10:10:48,30-Sep-21,3.0695,3.088,9.42183025,9.535744
10:10:48,30-Sep-21,3.1185,3.091,9.72504225,9.554281
10:10:48,30-Sep-21,3.1185,3.094,9.72504225,9.572836
10:10:48,30-Sep-21,3.1185,3.098,9.72504225,9.597604
10:10:48,30-Sep-21,3.1185,3.101,9.72504225,9.616201
10:10:48,30-Sep-21,3.1185,3.104,9.72504225,9.634816
10:10:48,30-Sep-21,3.1185,3.108,9.72504225,9.659664
10:10:48,30-Sep-21,3.172,3.111,10.061584,9.678321
10:10:48,30-Sep-21,3.172,3.114,10.061584,9.696996
10:10:48,30-Sep-21,3.172,3.117,10.061584,9.715689
10:10:48,30-Sep-21,3.1865,3.12,10.15378225,9.7344
10:10:48,30-Sep-21,3.1865,3.123,10.15378225,9.753129
10:10:48,30-Sep-21,3.1865,3.125,10.15378225,9.765625
10:10:48,30-Sep-21,3.177,3.128,10.093329,9.784384
10:10:48,30-Sep-21,3.177,3.131,10.093329,9.803161
10:10:48,30-Sep-21,3.177,3.133,10.093329,9.815689
10:10:48,30-Sep-21,3.177,3.135,10.093329,9.828225
10:10:48,30-Sep-21,3.167,3.137,10.029889,9.840769
10:10:48,30-Sep-21,3.167,3.139,10.029889,9.853321
10:10:48,30-Sep-21,3.167,3.141,10.029889,9.865881
10:10:48,30-Sep-21,3.128,3.142,9.784384,9.872164
10:10:48,30-Sep-21,3.128,3.144,9.784384,9.884736
10:10:48,30-Sep-21,3.128,3.145,9.784384,9.891025
10:10:48,30-Sep-21,3.128,3.147,9.784384,9.903609
10:10:48,30-Sep-21,3.128,3.148,9.784384,9.909904
10:10:48,30-Sep-21,3.128,3.149,9.784384,9.916201
10:10:48,30-Sep-21,3.1185,3.15,9.72504225,9.9225
10:10:48,30-Sep-21,3.1185,3.151,9.72504225,9.928801
10:10:48,30-Sep-21,3.1185,3.152,9.72504225,9.935104
10:10:48,30-Sep-21,3.1185,3.153,9.72504225,9.941409
10:10:48,30-Sep-21,3.1085,3.154,9.66277225,9.947716
10:10:48,30-Sep-21,3.1085,3.155,9.66277225,9.954025
10:10:48,30-Sep-21,3.1085,3.156,9.66277225,9.960336
10:10:48,30-Sep-21,3.1135,3.156,9.69388225,9.960336
10:10:48,30-Sep-21,3.1135,3.157,9.69388225,9.966649
10:10:48,30-Sep-21,3.1135,3.158,9.69388225,9.972964
10:10:48,30-Sep-21,3.123,3.158,9.753129,9.972964
10:10:48,30-Sep-21,3.123,3.159,9.753129,9.979281
10:10:48,30-Sep-21,3.123,3.16,9.753129,9.9856
10:10:48,30-Sep-21,3.123,3.16,9.753129,9.9856
10:10:48,30-Sep-21,3.1915,3.16,10.18567225,9.9856
10:10:48,30-Sep-21,3.1915,3.161,10.18567225,9.991921
10:10:48,30-Sep-21,3.1915,3.161,10.18567225,9.991921
10:10:48,30-Sep-21,3.1915,3.161,10.18567225,9.991921
10:10:48,30-Sep-21,3.1915,3.161,10.18567225,9.991921
10:10:48,30-Sep-21,3.1915,3.161,10.18567225,9.991921
10:10:48,30-Sep-21,3.2015,3.161,10.24960225,9.991921
10:10:48,30-Sep-21,3.2015,3.161,10.24960225,9.991921
10:10:48,30-Sep-21,3.2015,3.161,10.24960225,9.991921
10:10:48,30-Sep-21,3.2015,3.161,10.24960225,9.991921
10:10:48,30-Sep-21,3.2015,3.16,10.24960225,9.9856
10:10:48,30-Sep-21,3.2015,3.16,10.24960225,9.9856
10:10:48,30-Sep-21,3.1915,3.159,10.18567225,9.979281
10:10:48,30-Sep-21,3.1915,3.158,10.18567225,9.972964
10:10:48,30-Sep-21,3.1915,3.158,10.18567225,9.972964
10:10:48,30-Sep-21,3.1915,3.157,10.18567225,9.966649
10:10:48,30-Sep-21,3.1525,3.156,9.93825625,9.960336
10:10:48,30-Sep-21,3.1525,3.155,9.93825625,9.954025
10:10:48,30-Sep-21,3.1525,3.154,9.93825625,9.947716
10:10:48,30-Sep-21,3.1525,3.154,9.93825625,9.947716
10:10:48,30-Sep-21,3.1525,3.153,9.93825625,9.941409
10:10:48,30-Sep-21,3.1525,3.152,9.93825625,9.935104
10:10:48,30-Sep-21,3.1425,3.151,9.87530625,9.928801
10:10:48,30-Sep-21,3.1425,3.15,9.87530625,9.9225
10:10:48,30-Sep-21,3.1425,3.149,9.87530625,9.916201
10:10:48,30-Sep-21,3.1035,3.149,9.63171225,9.916201
10:10:48,30-Sep-21,3.1035,3.148,9.63171225,9.909904
10:10:48,30-Sep-21,3.1035,3.147,9.63171225,9.903609
10:10:48,30-Sep-21,3.1035,3.147,9.63171225,9.903609
10:10:48,30-Sep-21,3.1035,3.146,9.63171225,9.897316
10:10:48,30-Sep-21,3.1035,3.146,9.63171225,9.897316
10:10:48,30-Sep-21,3.1035,3.146,9.63171225,9.897316
10:10:48,30-Sep-21,3.1035,3.145,9.63171225,9.891025
10:10:48,30-Sep-21,3.1035,3.145,9.63171225,9.891025
10:10:48,30-Sep-21,3.1035,3.145,9.63171225,9.891025
10:10:48,30-Sep-21,3.1035,3.145,9.63171225,9.891025
10:10:48,30-Sep-21,3.1425,3.145,9.87530625,9.891025
10:10:48,30-Sep-21,3.1425,3.145,9.87530625,9.891025
10:10:48,30-Sep-21,3.1425,3.145,9.87530625,9.891025
10:10:48,30-Sep-21,3.1425,3.145,9.87530625,9.891025
10:10:48,30-Sep-21,3.1425,3.146,9.87530625,9.897316
10:10:48,30-Sep-21,3.172,3.146,10.061584,9.897316
10:10:48,30-Sep-21,3.172,3.146,10.061584,9.897316
10:10:48,30-Sep-21,3.172,3.146,10.061584,9.897316
10:10:48,30-Sep-21,3.2065,3.146,10.28164225,9.897316
10:10:48,30-Sep-21,3.2065,3.147,10.28164225,9.903609
10:10:48,30-Sep-21,3.2065,3.147,10.28164225,9.903609
10:10:48,30-Sep-21,3.2065,3.147,10.28164225,9.903609
10:10:48,30-Sep-21,3.2065,3.147,10.28164225,9.903609
10:10:48,30-Sep-21,3.182,3.147,10.125124,9.903609
10:10:48,30-Sep-21,3.182,3.147,10.125124,9.903609
10:10:48,30-Sep-21,3.167,3.147,10.029889,9.903609
10:10:48,30-Sep-21,3.167,3.147,10.029889,9.903609
10:10:48,30-Sep-21,3.167,3.147,10.029889,9.903609
10:10:48,30-Sep-21,3.167,3.147,10.029889,9.903609
10:10:48,30-Sep-21,3.167,3.147,10.029889,9.903609
10:10:48,30-Sep-21,3.123,3.147,9.753129,9.903609
10:10:48,30-Sep-21,3.123,3.147,9.753129,9.903609
10:10:48,30-Sep-21,3.1085,3.147,9.66277225,9.903609
10:10:48,30-Sep-21,3.1085,3.147,9.66277225,9.903609
10:10:48,30-Sep-21,3.0985,3.147,9.60070225,9.903609
10:10:48,30-Sep-21,3.0985,3.147,9.60070225,9.903609
10:10:48,30-Sep-21,3.0985,3.147,9.60070225,9.903609
10:10:48,30-Sep-21,3.1035,3.147,9.63171225,9.903609
10:10:48,30-Sep-21,3.1035,3.147,9.63171225,9.903609
10:10:48,30-Sep-21,3.1035,3.147,9.63171225,9.903609
10:10:48,30-Sep-21,3.1035,3.147,9.63171225,9.903609
10:10:48,30-Sep-21,3.1035,3.147,9.63171225,9.903609
10:10:48,30-Sep-21,3.1135,3.147,9.69388225,9.903609
10:10:48,30-Sep-21,3.1135,3.147,9.69388225,9.903609
10:10:48,30-Sep-21,3.1135,3.147,9.69388225,9.903609
10:10:48,30-Sep-21,3.1865,3.147,10.15378225,9.903609
10:10:48,30-Sep-21,3.1865,3.147,10.15378225,9.903609
10:10:48,30-Sep-21,3.1965,3.147,10.21761225,9.903609
10:10:48,30-Sep-21,3.1965,3.147,10.21761225,9.903609
10:10:48,30-Sep-21,3.1965,3.146,10.21761225,9.897316
10:10:48,30-Sep-21,3.2015,3.146,10.24960225,9.897316
10:10:48,30-Sep-21,3.2015,3.146,10.24960225,9.897316
10:10:48,30-Sep-21,3.2015,3.146,10.24960225,9.897316
10:10:48,30-Sep-21,3.1915,3.146,10.18567225,9.897316
10:10:48,30-Sep-21,3.1915,3.145,10.18567225,9.891025
10:10:48,30-Sep-21,3.1915,3.145,10.18567225,9.891025
10:10:48,30-Sep-21,3.1915,3.145,10.18567225,9.891025
10:10:48,30-Sep-21,3.1525,3.144,9.93825625,9.884736
10:10:48,30-Sep-21,3.1525,3.144,9.93825625,9.884736
10:10:48,30-Sep-21,3.138,3.144,9.847044,9.884736
10:10:48,30-Sep-21,3.138,3.144,9.847044,9.884736
10:10:48,30-Sep-21,3.138,3.143,9.847044,9.878449
10:10:48,30-Sep-21,3.123,3.143,9.753129,9.878449
10:10:48,30-Sep-21,3.123,3.143,9.753129,9.878449
10:10:48,30-Sep-21,3.123,3.143,9.753129,9.878449
10:10:48,30-Sep-21,3.123,3.143,9.753129,9.878449
10:10:48,30-Sep-21,3.123,3.143,9.753129,9.878449
10:10:48,30-Sep-21,3.0985,3.143,9.60070225,9.878449
10:10:48,30-Sep-21,3.0985,3.143,9.60070225,9.878449
10:10:48,30-Sep-21,3.0985,3.144,9.60070225,9.884736
10:10:48,30-Sep-21,3.0985,3.144,9.60070225,9.884736
10:10:48,30-Sep-21,3.0985,3.144,9.60070225,9.884736
10:10:48,30-Sep-21,3.0985,3.145,9.60070225,9.891025
10:10:48,30-Sep-21,3.0985,3.145,9.60070225,9.891025
10:10:48,30-Sep-21,3.0985,3.146,9.60070225,9.897316
10:10:48,30-Sep-21,3.0985,3.147,9.60070225,9.903609
10:10:48,30-Sep-21,3.133,3.148,9.815689,9.909904
10:10:48,30-Sep-21,3.133,3.148,9.815689,9.909904
10:10:48,30-Sep-21,3.133,3.149,9.815689,9.916201
10:10:48,30-Sep-21,3.133,3.15,9.815689,9.9225
10:10:48,30-Sep-21,3.1625,3.151,10.00140625,9.928801
10:10:49,30-Sep-21,3.1625,3.152,10.00140625,9.935104
10:10:49,30-Sep-21,3.1625,3.152,10.00140625,9.935104
10:10:49,30-Sep-21,3.1625,3.153,10.00140625,9.941409
10:10:49,30-Sep-21,3.2015,3.154,10.24960225,9.947716
10:10:49,30-Sep-21,3.2015,3.155,10.24960225,9.954025
10:10:49,30-Sep-21,3.2015,3.155,10.24960225,9.954025
10:10:49,30-Sep-21,3.2015,3.156,10.24960225,9.960336
10:10:49,30-Sep-21,3.2015,3.156,10.24960225,9.960336
10:10:49,30-Sep-21,3.2015,3.157,10.24960225,9.966649
10:10:49,30-Sep-21,3.2015,3.157,10.24960225,9.966649
10:10:49,30-Sep-21,3.2015,3.157,10.24960225,9.966649
10:10:49,30-Sep-21,3.2015,3.157,10.24960225,9.966649
10:10:49,30-Sep-21,3.2015,3.157,10.24960225,9.966649
10:10:49,30-Sep-21,3.182,3.157,10.125124,9.966649
10:10:49,30-Sep-21,3.182,3.157,10.125124,9.966649
10:10:49,30-Sep-21,3.182,3.157,10.125124,9.966649
10:10:49,30-Sep-21,3.167,3.157,10.029889,9.966649
10:10:49,30-Sep-21,3.167,3.157,10.029889,9.966649
10:10:49,30-Sep-21,3.167,3.156,10.029889,9.960336
10:10:49,30-Sep-21,3.1525,3.156,9.93825625,9.960336
10:10:49,30-Sep-21,3.1525,3.156,9.93825625,9.960336
10:10:49,30-Sep-21,3.1525,3.155,9.93825625,9.954025
10:10:49,30-Sep-21,3.1525,3.155,9.93825625,9.954025
10:10:49,30-Sep-21,3.1525,3.155,9.93825625,9.954025
10:10:49,30-Sep-21,3.1525,3.155,9.93825625,9.954025
10:10:49,30-Sep-21,3.1135,3.154,9.69388225,9.947716
10:10:49,30-Sep-21,3.1135,3.154,9.69388225,9.947716
10:10:49,30-Sep-21,3.1135,3.154,9.69388225,9.947716
10:10:49,30-Sep-21,3.1035,3.154,9.63171225,9.947716
10:10:49,30-Sep-21,3.1035,3.154,9.63171225,9.947716
10:10:49,30-Sep-21,3.1035,3.154,9.63171225,9.947716
10:10:49,30-Sep-21,3.1035,3.154,9.63171225,9.947716
10:10:49,30-Sep-21,3.0985,3.155,9.60070225,9.954025
10:10:49,30-Sep-21,3.0985,3.155,9.60070225,9.954025
10:10:49,30-Sep-21,3.0985,3.155,9.60070225,9.954025
10:10:49,30-Sep-21,3.1085,3.156,9.66277225,9.960336
10:10:49,30-Sep-21,3.1085,3.156,9.66277225,9.960336
10:10:49,30-Sep-21,3.1085,3.157,9.66277225,9.966649
10:10:49,30-Sep-21,3.177,3.157,10.093329,9.966649
10:10:49,30-Sep-21,3.177,3.157,10.093329,9.966649
10:10:49,30-Sep-21,3.177,3.158,10.093329,9.972964
10:10:49,30-Sep-21,3.177,3.158,10.093329,9.972964
10:10:49,30-Sep-21,3.177,3.159,10.093329,9.979281
10:10:49,30-Sep-21,3.177,3.159,10.093329,9.979281
10:10:49,30-Sep-21,3.1915,3.159,10.18567225,9.979281
10:10:49,30-Sep-21,3.1915,3.16,10.18567225,9.9856
10:10:49,30-Sep-21,3.1915,3.16,10.18567225,9.9856
10:10:49,30-Sep-21,3.1915,3.16,10.18567225,9.9856
10:10:49,30-Sep-21,3.1965,3.16,10.21761225,9.9856
10:10:49,30-Sep-21,3.1965,3.159,10.21761225,9.979281
10:10:49,30-Sep-21,3.1965,3.159,10.21761225,9.979281
10:10:49,30-Sep-21,3.1965,3.159,10.21761225,9.979281
10:10:49,30-Sep-21,3.1965,3.158,10.21761225,9.972964
10:10:49,30-Sep-21,3.1865,3.158,10.15378225,9.972964
10:10:49,30-Sep-21,3.1865,3.157,10.15378225,9.966649
10:10:49,30-Sep-21,3.1865,3.156,10.15378225,9.960336
10:10:49,30-Sep-21,3.1865,3.155,10.15378225,9.954025
10:10:49,30-Sep-21,3.177,3.154,10.093329,9.947716
10:10:49,30-Sep-21,3.177,3.153,10.093329,9.941409
10:10:49,30-Sep-21,3.177,3.152,10.093329,9.935104
10:10:49,30-Sep-21,3.177,3.15,10.093329,9.9225
10:10:49,30-Sep-21,3.177,3.149,10.093329,9.916201
10:10:49,30-Sep-21,3.133,3.148,9.815689,9.909904
10:10:49,30-Sep-21,3.133,3.146,9.815689,9.897316
10:10:49,30-Sep-21,3.133,3.145,9.815689,9.891025
10:10:49,30-Sep-21,3.133,3.144,9.815689,9.884736
10:10:49,30-Sep-21,3.133,3.142,9.815689,9.872164
10:10:49,30-Sep-21,3.133,3.141,9.815689,9.865881
10:10:49,30-Sep-21,3.1185,3.14,9.72504225,9.8596
10:10:49,30-Sep-21,3.1185,3.139,9.72504225,9.853321
10:10:49,30-Sep-21,3.1185,3.138,9.72504225,9.847044
10:10:49,30-Sep-21,3.1185,3.137,9.72504225,9.840769
10:10:49,30-Sep-21,3.089,3.136,9.541921,9.834496
10:10:49,30-Sep-21,3.089,3.135,9.541921,9.828225
10:10:49,30-Sep-21,3.089,3.134,9.541921,9.821956
10:10:49,30-Sep-21,3.089,3.134,9.541921,9.821956
10:10:49,30-Sep-21,3.084,3.133,9.511056,9.815689
10:10:49,30-Sep-21,3.084,3.133,9.511056,9.815689
10:10:49,30-Sep-21,3.084,3.132,9.511056,9.809424
10:10:49,30-Sep-21,3.084,3.132,9.511056,9.809424
10:10:49,30-Sep-21,3.123,3.132,9.753129,9.809424
10:10:49,30-Sep-21,3.123,3.132,9.753129,9.809424
10:10:49,30-Sep-21,3.123,3.132,9.753129,9.809424
10:10:49,30-Sep-21,3.123,3.133,9.753129,9.815689
10:10:49,30-Sep-21,3.123,3.133,9.753129,9.815689
10:10:49,30-Sep-21,3.123,3.133,9.753129,9.815689
10:10:49,30-Sep-21,3.123,3.134,9.753129,9.821956
10:10:49,30-Sep-21,3.123,3.134,9.753129,9.821956
10:10:49,30-Sep-21,3.1475,3.134,9.90675625,9.821956
10:10:49,30-Sep-21,3.1475,3.135,9.90675625,9.828225
10:10:49,30-Sep-21,3.1475,3.135,9.90675625,9.828225
10:10:49,30-Sep-21,3.1915,3.136,10.18567225,9.834496
10:10:49,30-Sep-21,3.1915,3.136,10.18567225,9.834496
10:10:49,30-Sep-21,3.1915,3.136,10.18567225,9.834496
10:10:49,30-Sep-21,3.1865,3.137,10.15378225,9.840769
10:10:49,30-Sep-21,3.1865,3.137,10.15378225,9.840769
10:10:49,30-Sep-21,3.1865,3.137,10.15378225,9.840769
10:10:49,30-Sep-21,3.167,3.137,10.029889,9.840769
10:10:49,30-Sep-21,3.167,3.137,10.029889,9.840769
10:10:49,30-Sep-21,3.167,3.137,10.029889,9.840769
10:10:49,30-Sep-21,3.167,3.137,10.029889,9.840769
10:10:49,30-Sep-21,3.1575,3.137,9.96980625,9.840769
10:10:49,30-Sep-21,3.1575,3.137,9.96980625,9.840769
10:10:49,30-Sep-21,3.1575,3.137,9.96980625,9.840769
10:10:49,30-Sep-21,3.1575,3.136,9.96980625,9.834496
10:10:49,30-Sep-21,3.1575,3.136,9.96980625,9.834496
10:10:49,30-Sep-21,3.1575,3.136,9.96980625,9.834496
10:10:49,30-Sep-21,3.138,3.136,9.847044,9.834496
10:10:49,30-Sep-21,3.138,3.136,9.847044,9.834496
10:10:49,30-Sep-21,3.138,3.135,9.847044,9.828225
10:10:49,30-Sep-21,3.0985,3.135,9.60070225,9.828225
10:10:49,30-Sep-21,3.0985,3.135,9.60070225,9.828225
10:10:49,30-Sep-21,3.0985,3.135,9.60070225,9.828225
10:10:49,30-Sep-21,3.089,3.135,9.541921,9.828225
10:10:49,30-Sep-21,3.089,3.135,9.541921,9.828225
10:10:49,30-Sep-21,3.089,3.135,9.541921,9.828225
10:10:49,30-Sep-21,3.089,3.135,9.541921,9.828225
10:10:49,30-Sep-21,3.089,3.136,9.541921,9.834496
10:10:49,30-Sep-21,3.089,3.136,9.541921,9.834496
10:10:49,30-Sep-21,3.089,3.136,9.541921,9.834496
10:10:49,30-Sep-21,3.089,3.137,9.541921,9.840769
10:10:49,30-Sep-21,3.089,3.137,9.541921,9.840769
10:10:49,30-Sep-21,3.089,3.138,9.541921,9.847044
10:10:49,30-Sep-21,3.0985,3.139,9.60070225,9.853321
10:10:49,30-Sep-21,3.0985,3.139,9.60070225,9.853321
10:10:49,30-Sep-21,3.0985,3.14,9.60070225,9.8596
10:10:49,30-Sep-21,3.167,3.141,10.029889,9.865881
10:10:49,30-Sep-21,3.167,3.141,10.029889,9.865881
10:10:49,30-Sep-21,3.167,3.142,10.029889,9.872164
10:10:49,30-Sep-21,3.182,3.143,10.125124,9.878449
10:10:49,30-Sep-21,3.182,3.143,10.125124,9.878449
10:10:49,30-Sep-21,3.182,3.144,10.125124,9.884736
10:10:49,30-Sep-21,3.1915,3.144,10.18567225,9.884736
10:10:49,30-Sep-21,3.1915,3.145,10.18567225,9.891025
10:10:49,30-Sep-21,3.1915,3.145,10.18567225,9.891025
10:10:49,30-Sep-21,3.1915,3.145,10.18567225,9.891025
10:10:49,30-Sep-21,3.1915,3.145,10.18567225,9.891025
10:10:49,30-Sep-21,3.1915,3.146,10.18567225,9.897316
10:10:49,30-Sep-21,3.1915,3.146,10.18567225,9.897316
10:10:49,30-Sep-21,3.1865,3.146,10.15378225,9.897316
10:10:49,30-Sep-21,3.1865,3.145,10.15378225,9.891025
10:10:49,30-Sep-21,3.1865,3.145,10.15378225,9.891025
10:10:49,30-Sep-21,3.177,3.145,10.093329,9.891025
10:10:49,30-Sep-21,3.177,3.145,10.093329,9.891025
10:10:49,30-Sep-21,3.177,3.145,10.093329,9.891025
10:10:49,30-Sep-21,3.133,3.144,9.815689,9.884736
10:10:49,30-Sep-21,3.133,3.144,9.815689,9.884736
10:10:49,30-Sep-21,3.133,3.144,9.815689,9.884736
10:10:49,30-Sep-21,3.123,3.143,9.753129,9.878449
10:10:49,30-Sep-21,3.123,3.143,9.753129,9.878449
10:10:49,30-Sep-21,3.123,3.143,9.753129,9.878449
10:10:49,30-Sep-21,3.123,3.143,9.753129,9.878449
10:10:49,30-Sep-21,3.123,3.143,9.753129,9.878449
10:10:49,30-Sep-21,3.123,3.142,9.753129,9.872164
10:10:49,30-Sep-21,3.089,3.143,9.541921,9.878449
10:10:49,30-Sep-21,3.089,3.143,9.541921,9.878449
10:10:49,30-Sep-21,3.089,3.143,9.541921,9.878449
10:10:49,30-Sep-21,3.084,3.143,9.511056,9.878449
10:10:49,30-Sep-21,3.084,3.144,9.511056,9.884736
10:10:49,30-Sep-21,3.084,3.144,9.511056,9.884736
10:10:49,30-Sep-21,3.1185,3.145,9.72504225,9.891025
10:10:49,30-Sep-21,3.1185,3.145,9.72504225,9.891025
10:10:49,30-Sep-21,3.1185,3.146,9.72504225,9.897316
10:10:49,30-Sep-21,3.1185,3.147,9.72504225,9.903609
10:10:49,30-Sep-21,3.1475,3.148,9.90675625,9.909904
10:10:49,30-Sep-21,3.1475,3.149,9.90675625,9.916201
10:10:49,30-Sep-21,3.1475,3.15,9.90675625,9.9225
10:10:49,30-Sep-21,3.1475,3.151,9.90675625,9.928801
10:10:49,30-Sep-21,3.1475,3.152,9.90675625,9.935104
10:10:49,30-Sep-21,3.1475,3.153,9.90675625,9.941409
10:10:49,30-Sep-21,3.1475,3.154,9.90675625,9.947716
10:10:49,30-Sep-21,3.1915,3.155,10.18567225,9.954025
10:10:49,30-Sep-21,3.1915,3.156,10.18567225,9.960336
10:10:49,30-Sep-21,3.1915,3.157,10.18567225,9.966649
10:10:49,30-Sep-21,3.1915,3.157,10.18567225,9.966649
10:10:49,30-Sep-21,3.1915,3.158,10.18567225,9.972964
10:10:49,30-Sep-21,3.1965,3.159,10.21761225,9.979281
10:10:49,30-Sep-21,3.1965,3.16,10.21761225,9.9856
10:10:49,30-Sep-21,3.1965,3.16,10.21761225,9.9856
10:10:49,30-Sep-21,3.1965,3.161,10.21761225,9.991921
10:10:49,30-Sep-21,3.1965,3.161,10.21761225,9.991921
10:10:49,30-Sep-21,3.1965,3.161,10.21761225,9.991921
10:10:49,30-Sep-21,3.1965,3.161,10.21761225,9.991921
10:10:49,30-Sep-21,3.1965,3.161,10.21761225,9.991921
10:10:49,30-Sep-21,3.1965,3.161,10.21761225,9.991921
10:10:49,30-Sep-21,3.172,3.161,10.061584,9.991921
10:10:49,30-Sep-21,3.172,3.161,10.061584,9.991921
10:10:49,30-Sep-21,3.172,3.161,10.061584,9.991921
10:10:49,30-Sep-21,3.172,3.161,10.061584,9.991921
10:10:49,30-Sep-21,3.172,3.161,10.061584,9.991921
10:10:49,30-Sep-21,3.172,3.16,10.061584,9.9856
10:10:49,30-Sep-21,3.1575,3.16,9.96980625,9.9856
10:10:49,30-Sep-21,3.1575,3.16,9.96980625,9.9856
10:10:49,30-Sep-21,3.1575,3.159,9.96980625,9.979281
10:10:49,30-Sep-21,3.1135,3.159,9.69388225,9.979281
10:10:49,30-Sep-21,3.1135,3.159,9.69388225,9.979281
10:10:49,30-Sep-21,3.1035,3.158,9.63171225,9.972964
10:10:49,30-Sep-21,3.1035,3.158,9.63171225,9.972964
10:10:49,30-Sep-21,3.0985,3.158,9.60070225,9.972964
10:10:49,30-Sep-21,3.0985,3.158,9.60070225,9.972964
10:10:49,30-Sep-21,3.0985,3.157,9.60070225,9.966649
10:10:49,30-Sep-21,3.1085,3.157,9.66277225,9.966649
10:10:49,30-Sep-21,3.1085,3.157,9.66277225,9.966649
10:10:49,30-Sep-21,3.1085,3.157,9.66277225,9.966649
10:10:49,30-Sep-21,3.1085,3.157,9.66277225,9.966649
10:10:49,30-Sep-21,3.1085,3.157,9.66277225,9.966649
10:10:49,30-Sep-21,3.172,3.157,10.061584,9.966649
10:10:49,30-Sep-21,3.172,3.157,10.061584,9.966649
10:10:49,30-Sep-21,3.1915,3.157,10.18567225,9.966649
10:10:49,30-Sep-21,3.1915,3.157,10.18567225,9.966649
10:10:49,30-Sep-21,3.1915,3.157,10.18567225,9.966649
10:10:49,30-Sep-21,3.2015,3.157,10.24960225,9.966649
10:10:49,30-Sep-21,3.2015,3.158,10.24960225,9.972964
10:10:50,30-Sep-21,3.2015,3.157,10.24960225,9.966649
10:10:50,30-Sep-21,3.1965,3.157,10.21761225,9.966649
10:10:50,30-Sep-21,3.1965,3.157,10.21761225,9.966649
10:10:50,30-Sep-21,3.1965,3.157,10.21761225,9.966649
10:10:50,30-Sep-21,3.1965,3.157,10.21761225,9.966649
10:10:50,30-Sep-21,3.1965,3.157,10.21761225,9.966649
10:10:50,30-Sep-21,3.1965,3.157,10.21761225,9.966649
10:10:50,30-Sep-21,3.1965,3.156,10.21761225,9.960336
10:10:50,30-Sep-21,3.1865,3.156,10.15378225,9.960336
10:10:50,30-Sep-21,3.1865,3.156,10.15378225,9.960336
10:10:50,30-Sep-21,3.1865,3.155,10.15378225,9.954025
10:10:50,30-Sep-21,3.1425,3.155,9.87530625,9.954025
10:10:50,30-Sep-21,3.1425,3.155,9.87530625,9.954025
10:10:50,30-Sep-21,3.1425,3.154,9.87530625,9.947716
10:10:50,30-Sep-21,3.128,3.154,9.784384,9.947716
10:10:50,30-Sep-21,3.128,3.154,9.784384,9.947716
10:10:50,30-Sep-21,3.128,3.153,9.784384,9.941409
10:10:50,30-Sep-21,3.0985,3.153,9.60070225,9.941409
10:10:50,30-Sep-21,3.0985,3.153,9.60070225,9.941409
10:10:50,30-Sep-21,3.0985,3.153,9.60070225,9.941409
10:10:50,30-Sep-21,3.0985,3.152,9.60070225,9.935104
10:10:50,30-Sep-21,3.0985,3.152,9.60070225,9.935104
10:10:50,30-Sep-21,3.094,3.152,9.572836,9.935104
10:10:50,30-Sep-21,3.094,3.152,9.572836,9.935104
10:10:50,30-Sep-21,3.123,3.152,9.753129,9.935104
10:10:50,30-Sep-21,3.123,3.152,9.753129,9.935104
10:10:50,30-Sep-21,3.123,3.152,9.753129,9.935104
10:10:50,30-Sep-21,3.1525,3.152,9.93825625,9.935104
10:10:50,30-Sep-21,3.1525,3.152,9.93825625,9.935104
10:10:50,30-Sep-21,3.177,3.152,10.093329,9.935104
10:10:50,30-Sep-21,3.177,3.152,10.093329,9.935104
10:10:50,30-Sep-21,3.177,3.152,10.093329,9.935104
10:10:50,30-Sep-21,3.2065,3.152,10.28164225,9.935104
10:10:50,30-Sep-21,3.2065,3.152,10.28164225,9.935104
10:10:50,30-Sep-21,3.2065,3.152,10.28164225,9.935104
10:10:50,30-Sep-21,3.2065,3.151,10.28164225,9.928801
10:10:50,30-Sep-21,3.2065,3.151,10.28164225,9.928801
10:10:50,30-Sep-21,3.2065,3.151,10.28164225,9.928801
10:10:50,30-Sep-21,3.2065,3.151,10.28164225,9.928801
10:10:50,30-Sep-21,3.182,3.151,10.125124,9.928801
10:10:50,30-Sep-21,3.182,3.151,10.125124,9.928801
10:10:50,30-Sep-21,3.182,3.15,10.125124,9.9225
10:10:50,30-Sep-21,3.167,3.15,10.029889,9.9225
10:10:50,30-Sep-21,3.167,3.15,10.029889,9.9225
10:10:50,30-Sep-21,3.167,3.15,10.029889,9.9225
10:10:50,30-Sep-21,3.167,3.15,10.029889,9.9225
10:10:50,30-Sep-21,3.123,3.15,9.753129,9.9225
10:10:50,30-Sep-21,3.123,3.15,9.753129,9.9225
10:10:50,30-Sep-21,3.123,3.15,9.753129,9.9225
10:10:50,30-Sep-21,3.1135,3.15,9.69388225,9.9225
10:10:50,30-Sep-21,3.1135,3.15,9.69388225,9.9225
10:10:50,30-Sep-21,3.1135,3.15,9.69388225,9.9225
10:10:50,30-Sep-21,3.1135,3.15,9.69388225,9.9225
10:10:50,30-Sep-21,3.1035,3.151,9.63171225,9.928801
10:10:50,30-Sep-21,3.1035,3.151,9.63171225,9.928801
10:10:50,30-Sep-21,3.1035,3.151,9.63171225,9.928801
10:10:50,30-Sep-21,3.1035,3.152,9.63171225,9.935104
10:10:50,30-Sep-21,3.1035,3.153,9.63171225,9.941409
10:10:50,30-Sep-21,3.1135,3.153,9.69388225,9.941409
10:10:50,30-Sep-21,3.1135,3.154,9.69388225,9.947716
10:10:50,30-Sep-21,3.1135,3.155,9.69388225,9.954025
10:10:50,30-Sep-21,3.1135,3.156,9.69388225,9.960336
10:10:50,30-Sep-21,3.128,3.157,9.784384,9.966649
10:10:50,30-Sep-21,3.128,3.158,9.784384,9.972964
10:10:50,30-Sep-21,3.128,3.158,9.784384,9.972964
10:10:50,30-Sep-21,3.1965,3.159,10.21761225,9.979281
10:10:50,30-Sep-21,3.1965,3.16,10.21761225,9.9856
10:10:50,30-Sep-21,3.1965,3.161,10.21761225,9.991921
10:10:50,30-Sep-21,3.1965,3.162,10.21761225,9.998244
10:10:50,30-Sep-21,3.1965,3.162,10.21761225,9.998244
10:10:50,30-Sep-21,3.1965,3.163,10.21761225,10.004569
10:10:50,30-Sep-21,3.2065,3.163,10.28164225,10.004569
10:10:50,30-Sep-21,3.2065,3.163,10.28164225,10.004569
10:10:50,30-Sep-21,3.2065,3.164,10.28164225,10.010896
10:10:50,30-Sep-21,3.2065,3.164,10.28164225,10.010896
10:10:50,30-Sep-21,3.2065,3.164,10.28164225,10.010896
10:10:50,30-Sep-21,3.2065,3.164,10.28164225,10.010896
10:10:50,30-Sep-21,3.2065,3.163,10.28164225,10.004569
10:10:50,30-Sep-21,3.1965,3.163,10.21761225,10.004569
10:10:50,30-Sep-21,3.1965,3.163,10.21761225,10.004569
10:10:50,30-Sep-21,3.1965,3.162,10.21761225,9.998244
10:10:50,30-Sep-21,3.1965,3.161,10.21761225,9.991921
10:10:50,30-Sep-21,3.1525,3.161,9.93825625,9.991921
10:10:50,30-Sep-21,3.1525,3.16,9.93825625,9.9856
10:10:50,30-Sep-21,3.1525,3.159,9.93825625,9.979281
10:10:50,30-Sep-21,3.1525,3.158,9.93825625,9.972964
10:10:50,30-Sep-21,3.1525,3.157,9.93825625,9.966649
10:10:50,30-Sep-21,3.1525,3.156,9.93825625,9.960336
10:10:50,30-Sep-21,3.1525,3.155,9.93825625,9.954025
10:10:50,30-Sep-21,3.1525,3.154,9.93825625,9.947716
10:10:50,30-Sep-21,3.1525,3.153,9.93825625,9.941409
10:10:50,30-Sep-21,3.138,3.152,9.847044,9.935104
10:10:50,30-Sep-21,3.138,3.151,9.847044,9.928801
10:10:50,30-Sep-21,3.138,3.15,9.847044,9.9225
10:10:50,30-Sep-21,3.138,3.149,9.847044,9.916201
10:10:50,30-Sep-21,3.138,3.149,9.847044,9.916201
10:10:50,30-Sep-21,3.1085,3.148,9.66277225,9.909904
10:10:50,30-Sep-21,3.1085,3.147,9.66277225,9.903609
10:10:50,30-Sep-21,3.1085,3.147,9.66277225,9.903609
10:10:50,30-Sep-21,3.1085,3.147,9.66277225,9.903609
10:10:50,30-Sep-21,3.1035,3.146,9.63171225,9.897316
10:10:50,30-Sep-21,3.1035,3.146,9.63171225,9.897316
10:10:50,30-Sep-21,3.1035,3.146,9.63171225,9.897316
10:10:50,30-Sep-21,3.1035,3.146,9.63171225,9.897316
10:10:50,30-Sep-21,3.1035,3.146,9.63171225,9.897316
10:10:50,30-Sep-21,3.1035,3.147,9.63171225,9.903609
10:10:50,30-Sep-21,3.1035,3.147,9.63171225,9.903609
10:10:50,30-Sep-21,3.1575,3.148,9.96980625,9.909904
10:10:50,30-Sep-21,3.1575,3.148,9.96980625,9.909904
10:10:50,30-Sep-21,3.1575,3.149,9.96980625,9.916201
10:10:50,30-Sep-21,3.1575,3.149,9.96980625,9.916201
10:10:50,30-Sep-21,3.1575,3.15,9.96980625,9.9225
10:10:50,30-Sep-21,3.177,3.151,10.093329,9.928801
10:10:50,30-Sep-21,3.177,3.152,10.093329,9.935104
10:10:50,30-Sep-21,3.211,3.153,10.310521,9.941409
10:10:50,30-Sep-21,3.211,3.153,10.310521,9.941409
10:10:50,30-Sep-21,3.211,3.154,10.310521,9.947716
10:10:50,30-Sep-21,3.211,3.155,10.310521,9.954025
10:10:50,30-Sep-21,3.211,3.156,10.310521,9.960336
10:10:50,30-Sep-21,3.1915,3.157,10.18567225,9.966649
10:10:50,30-Sep-21,3.1915,3.158,10.18567225,9.972964
10:10:50,30-Sep-21,3.1915,3.158,10.18567225,9.972964
10:10:50,30-Sep-21,3.1915,3.159,10.18567225,9.979281
10:10:50,30-Sep-21,3.1915,3.16,10.18567225,9.9856
10:10:50,30-Sep-21,3.177,3.161,10.093329,9.991921
10:10:50,30-Sep-21,3.177,3.161,10.093329,9.991921
10:10:50,30-Sep-21,3.177,3.162,10.093329,9.998244
10:10:50,30-Sep-21,3.133,3.163,9.815689,10.004569
10:10:50,30-Sep-21,3.133,3.164,9.815689,10.010896
10:10:50,30-Sep-21,3.123,3.165,9.753129,10.017225
10:10:50,30-Sep-21,3.123,3.165,9.753129,10.017225
10:10:50,30-Sep-21,3.123,3.166,9.753129,10.023556
10:10:50,30-Sep-21,3.1135,3.167,9.69388225,10.029889
10:10:50,30-Sep-21,3.1135,3.168,9.69388225,10.036224
10:10:50,30-Sep-21,3.1135,3.169,9.69388225,10.042561
10:10:50,30-Sep-21,3.1135,3.169,9.69388225,10.042561
10:10:50,30-Sep-21,3.1135,3.17,9.69388225,10.0489
10:10:50,30-Sep-21,3.133,3.171,9.815689,10.055241
10:10:50,30-Sep-21,3.133,3.172,9.815689,10.061584
10:10:50,30-Sep-21,3.133,3.172,9.815689,10.061584
10:10:50,30-Sep-21,3.133,3.173,9.815689,10.067929
10:10:50,30-Sep-21,3.1965,3.174,10.21761225,10.074276
10:10:50,30-Sep-21,3.1965,3.174,10.21761225,10.074276
10:10:50,30-Sep-21,3.1965,3.175,10.21761225,10.080625
10:10:50,30-Sep-21,3.1965,3.175,10.21761225,10.080625
10:10:50,30-Sep-21,3.211,3.176,10.310521,10.086976
10:10:50,30-Sep-21,3.211,3.176,10.310521,10.086976
10:10:50,30-Sep-21,3.211,3.176,10.310521,10.086976
10:10:50,30-Sep-21,3.211,3.176,10.310521,10.086976
10:10:50,30-Sep-21,3.211,3.176,10.310521,10.086976
10:10:50,30-Sep-21,3.211,3.176,10.310521,10.086976
10:10:50,30-Sep-21,3.211,3.176,10.310521,10.086976
10:10:50,30-Sep-21,3.2015,3.175,10.24960225,10.080625
10:10:50,30-Sep-21,3.2015,3.175,10.24960225,10.080625
10:10:50,30-Sep-21,3.2015,3.174,10.24960225,10.074276
10:10:50,30-Sep-21,3.2015,3.174,10.24960225,10.074276
10:10:50,30-Sep-21,3.2015,3.173,10.24960225,10.067929
10:10:50,30-Sep-21,3.2015,3.172,10.24960225,10.061584
10:10:50,30-Sep-21,3.2015,3.171,10.24960225,10.055241
10:10:50,30-Sep-21,3.2015,3.17,10.24960225,10.0489
10:10:50,30-Sep-21,3.2015,3.169,10.24960225,10.042561
10:10:50,30-Sep-21,3.1625,3.168,10.00140625,10.036224
10:10:50,30-Sep-21,3.1625,3.167,10.00140625,10.029889
10:10:50,30-Sep-21,3.1625,3.165,10.00140625,10.017225
10:10:50,30-Sep-21,3.1625,3.164,10.00140625,10.010896
10:10:50,30-Sep-21,3.1625,3.163,10.00140625,10.004569
10:10:50,30-Sep-21,3.1625,3.162,10.00140625,9.998244
10:10:50,30-Sep-21,3.1475,3.161,9.90675625,9.991921
10:10:50,30-Sep-21,3.1475,3.16,9.90675625,9.9856
10:10:50,30-Sep-21,3.1475,3.159,9.90675625,9.979281
10:10:50,30-Sep-21,3.1475,3.158,9.90675625,9.972964
10:10:50,30-Sep-21,3.133,3.157,9.815689,9.966649
10:10:50,30-Sep-21,3.133,3.157,9.815689,9.966649
10:10:50,30-Sep-21,3.133,3.156,9.815689,9.960336
10:10:50,30-Sep-21,3.1085,3.156,9.66277225,9.960336
10:10:50,30-Sep-21,3.1085,3.156,9.66277225,9.960336
10:10:50,30-Sep-21,3.1085,3.155,9.66277225,9.954025
10:10:50,30-Sep-21,3.1085,3.155,9.66277225,9.954025
10:10:50,30-Sep-21,3.1085,3.156,9.66277225,9.960336
10:10:50,30-Sep-21,3.1085,3.156,9.66277225,9.960336
10:10:50,30-Sep-21,3.1085,3.156,9.66277225,9.960336
10:10:50,30-Sep-21,3.1085,3.157,9.66277225,9.966649
10:10:50,30-Sep-21,3.1085,3.157,9.66277225,9.966649
10:10:50,30-Sep-21,3.1085,3.158,9.66277225,9.972964
10:10:50,30-Sep-21,3.1575,3.158,9.96980625,9.972964
10:10:50,30-Sep-21,3.1575,3.159,9.96980625,9.979281
10:10:50,30-Sep-21,3.1575,3.16,9.96980625,9.9856
10:10:50,30-Sep-21,3.1575,3.161,9.96980625,9.991921
10:10:50,30-Sep-21,3.182,3.162,10.125124,9.998244
10:10:50,30-Sep-21,3.182,3.163,10.125124,10.004569
10:10:50,30-Sep-21,3.182,3.163,10.125124,10.004569
10:10:50,30-Sep-21,3.216,3.164,10.342656,10.010896
10:10:50,30-Sep-21,3.216,3.165,10.342656,10.017225
10:10:50,30-Sep-21,3.216,3.166,10.342656,10.023556
10:10:50,30-Sep-21,3.221,3.167,10.374841,10.029889
10:10:50,30-Sep-21,3.221,3.167,10.374841,10.029889
10:10:50,30-Sep-21,3.221,3.168,10.374841,10.036224
10:10:50,30-Sep-21,3.221,3.168,10.374841,10.036224
10:10:50,30-Sep-21,3.221,3.169,10.374841,10.042561
10:10:50,30-Sep-21,3.221,3.169,10.374841,10.042561
10:10:50,30-Sep-21,3.221,3.169,10.374841,10.042561
10:10:50,30-Sep-21,3.1965,3.17,10.21761225,10.0489
10:10:50,30-Sep-21,3.1965,3.17,10.21761225,10.0489
10:10:51,30-Sep-21,3.1965,3.17,10.21761225,10.0489
10:10:51,30-Sep-21,3.182,3.17,10.125124,10.0489
10:10:51,30-Sep-21,3.182,3.17,10.125124,10.0489
10:10:51,30-Sep-21,3.182,3.17,10.125124,10.0489
10:10:51,30-Sep-21,3.167,3.17,10.029889,10.0489
10:10:51,30-Sep-21,3.167,3.17,10.029889,10.0489
10:10:51,30-Sep-21,3.123,3.17,9.753129,10.0489
10:10:51,30-Sep-21,3.123,3.17,9.753129,10.0489
10:10:51,30-Sep-21,3.123,3.17,9.753129,10.0489
10:10:51,30-Sep-21,3.1135,3.17,9.69388225,10.0489
10:10:51,30-Sep-21,3.1135,3.17,9.69388225,10.0489
10:10:51,30-Sep-21,3.1135,3.17,9.69388225,10.0489
10:10:51,30-Sep-21,3.1135,3.17,9.69388225,10.0489
10:10:51,30-Sep-21,3.1135,3.17,9.69388225,10.0489
10:10:51,30-Sep-21,3.1185,3.17,9.72504225,10.0489
10:10:51,30-Sep-21,3.1185,3.17,9.72504225,10.0489
10:10:51,30-Sep-21,3.133,3.17,9.815689,10.0489
10:10:51,30-Sep-21,3.133,3.171,9.815689,10.055241
10:10:51,30-Sep-21,3.133,3.171,9.815689,10.055241
10:10:51,30-Sep-21,3.133,3.171,9.815689,10.055241
10:10:51,30-Sep-21,3.2015,3.172,10.24960225,10.061584
10:10:51,30-Sep-21,3.2015,3.172,10.24960225,10.061584
10:10:51,30-Sep-21,3.2015,3.172,10.24960225,10.061584
10:10:51,30-Sep-21,3.2015,3.173,10.24960225,10.067929
10:10:51,30-Sep-21,3.2015,3.173,10.24960225,10.067929
10:10:51,30-Sep-21,3.211,3.173,10.310521,10.067929
10:10:51,30-Sep-21,3.211,3.174,10.310521,10.074276
10:10:51,30-Sep-21,3.211,3.174,10.310521,10.074276
10:10:51,30-Sep-21,3.211,3.174,10.310521,10.074276
10:10:51,30-Sep-21,3.211,3.174,10.310521,10.074276
10:10:51,30-Sep-21,3.211,3.174,10.310521,10.074276
10:10:51,30-Sep-21,3.211,3.174,10.310521,10.074276
10:10:51,30-Sep-21,3.211,3.174,10.310521,10.074276
10:10:51,30-Sep-21,3.211,3.174,10.310521,10.074276
10:10:51,30-Sep-21,3.211,3.174,10.310521,10.074276
10:10:51,30-Sep-21,3.2065,3.174,10.28164225,10.074276
10:10:51,30-Sep-21,3.2065,3.174,10.28164225,10.074276
10:10:51,30-Sep-21,3.1965,3.174,10.21761225,10.074276
10:10:51,30-Sep-21,3.1965,3.174,10.21761225,10.074276
10:10:51,30-Sep-21,3.1965,3.173,10.21761225,10.067929
10:10:51,30-Sep-21,3.1525,3.173,9.93825625,10.067929
10:10:51,30-Sep-21,3.1525,3.173,9.93825625,10.067929
10:10:51,30-Sep-21,3.1525,3.173,9.93825625,10.067929
10:10:51,30-Sep-21,3.138,3.173,9.847044,10.067929
10:10:51,30-Sep-21,3.138,3.172,9.847044,10.061584
10:10:51,30-Sep-21,3.1085,3.172,9.66277225,10.061584
10:10:51,30-Sep-21,3.1085,3.172,9.66277225,10.061584
10:10:51,30-Sep-21,3.1085,3.172,9.66277225,10.061584
10:10:51,30-Sep-21,3.1085,3.172,9.66277225,10.061584
10:10:51,30-Sep-21,3.1085,3.172,9.66277225,10.061584
10:10:51,30-Sep-21,3.1135,3.172,9.69388225,10.061584
10:10:51,30-Sep-21,3.1135,3.172,9.69388225,10.061584
10:10:51,30-Sep-21,3.1525,3.172,9.93825625,10.061584
10:10:51,30-Sep-21,3.1525,3.172,9.93825625,10.061584
10:10:51,30-Sep-21,3.1525,3.172,9.93825625,10.061584
10:10:51,30-Sep-21,3.182,3.172,10.125124,10.061584
10:10:51,30-Sep-21,3.182,3.172,10.125124,10.061584
10:10:51,30-Sep-21,3.182,3.172,10.125124,10.061584
10:10:51,30-Sep-21,3.221,3.172,10.374841,10.061584
10:10:51,30-Sep-21,3.221,3.172,10.374841,10.061584
10:10:51,30-Sep-21,3.221,3.172,10.374841,10.061584
10:10:51,30-Sep-21,3.221,3.172,10.374841,10.061584
10:10:51,30-Sep-21,3.221,3.172,10.374841,10.061584
10:10:51,30-Sep-21,3.221,3.171,10.374841,10.055241
10:10:51,30-Sep-21,3.221,3.171,10.374841,10.055241
10:10:51,30-Sep-21,3.216,3.17,10.342656,10.0489
10:10:51,30-Sep-21,3.216,3.17,10.342656,10.0489
10:10:51,30-Sep-21,3.182,3.169,10.125124,10.042561
10:10:51,30-Sep-21,3.182,3.169,10.125124,10.042561
10:10:51,30-Sep-21,3.182,3.168,10.125124,10.036224
10:10:51,30-Sep-21,3.167,3.167,10.029889,10.029889
10:10:51,30-Sep-21,3.167,3.166,10.029889,10.023556
10:10:51,30-Sep-21,3.167,3.165,10.029889,10.017225
10:10:51,30-Sep-21,3.167,3.164,10.029889,10.010896
10:10:51,30-Sep-21,3.167,3.163,10.029889,10.004569
10:10:51,30-Sep-21,3.123,3.162,9.753129,9.998244
10:10:51,30-Sep-21,3.123,3.161,9.753129,9.991921
10:10:51,30-Sep-21,3.1085,3.16,9.66277225,9.9856
10:10:51,30-Sep-21,3.1085,3.159,9.66277225,9.979281
10:10:51,30-Sep-21,3.1085,3.158,9.66277225,9.972964
10:10:51,30-Sep-21,3.1085,3.157,9.66277225,9.966649
10:10:51,30-Sep-21,3.1085,3.156,9.66277225,9.960336
10:10:51,30-Sep-21,3.1185,3.155,9.72504225,9.954025
10:10:51,30-Sep-21,3.1185,3.154,9.72504225,9.947716
10:10:51,30-Sep-21,3.1185,3.153,9.72504225,9.941409
10:10:51,30-Sep-21,3.177,3.151,10.093329,9.928801
10:10:51,30-Sep-21,3.177,3.15,10.093329,9.9225
10:10:51,30-Sep-21,3.177,3.149,10.093329,9.916201
10:10:51,30-Sep-21,3.177,3.148,10.093329,9.909904
10:10:51,30-Sep-21,3.177,3.147,10.093329,9.903609
10:10:51,30-Sep-21,3.1915,3.146,10.18567225,9.897316
10:10:51,30-Sep-21,3.1915,3.145,10.18567225,9.891025
10:10:51,30-Sep-21,3.1915,3.144,10.18567225,9.884736
10:10:51,30-Sep-21,3.1915,3.143,10.18567225,9.878449
10:10:51,30-Sep-21,3.1915,3.142,10.18567225,9.872164
10:10:51,30-Sep-21,3.172,3.141,10.061584,9.865881
10:10:51,30-Sep-21,3.172,3.14,10.061584,9.8596
10:10:51,30-Sep-21,3.1625,3.139,10.00140625,9.853321
10:10:51,30-Sep-21,3.1625,3.139,10.00140625,9.853321
10:10:51,30-Sep-21,3.1625,3.138,10.00140625,9.847044
10:10:51,30-Sep-21,3.123,3.137,9.753129,9.840769
10:10:51,30-Sep-21,3.123,3.137,9.753129,9.840769
10:10:51,30-Sep-21,3.123,3.136,9.753129,9.834496
10:10:51,30-Sep-21,3.123,3.136,9.753129,9.834496
10:10:51,30-Sep-21,3.1135,3.136,9.69388225,9.834496
10:10:51,30-Sep-21,3.1135,3.136,9.69388225,9.834496
10:10:51,30-Sep-21,3.1135,3.136,9.69388225,9.834496
10:10:51,30-Sep-21,3.084,3.136,9.511056,9.834496
10:10:51,30-Sep-21,3.084,3.137,9.511056,9.840769
10:10:51,30-Sep-21,3.089,3.137,9.541921,9.840769
10:10:51,30-Sep-21,3.089,3.138,9.541921,9.847044
10:10:51,30-Sep-21,3.089,3.139,9.541921,9.853321
10:10:51,30-Sep-21,3.089,3.14,9.541921,9.8596
10:10:51,30-Sep-21,3.133,3.141,9.815689,9.865881
10:10:51,30-Sep-21,3.133,3.142,9.815689,9.872164
10:10:51,30-Sep-21,3.133,3.143,9.815689,9.878449
10:10:51,30-Sep-21,3.133,3.145,9.815689,9.891025
10:10:51,30-Sep-21,3.133,3.146,9.815689,9.897316
10:10:51,30-Sep-21,3.133,3.148,9.815689,9.909904
10:10:51,30-Sep-21,3.133,3.149,9.815689,9.916201
10:10:51,30-Sep-21,3.133,3.151,9.815689,9.928801
10:10:51,30-Sep-21,3.133,3.153,9.815689,9.941409
10:10:51,30-Sep-21,3.1625,3.154,10.00140625,9.947716
10:10:51,30-Sep-21,3.1625,3.156,10.00140625,9.960336
10:10:51,30-Sep-21,3.1625,3.157,10.00140625,9.966649
10:10:51,30-Sep-21,3.1625,3.159,10.00140625,9.979281
10:10:51,30-Sep-21,3.1625,3.161,10.00140625,9.991921
10:10:51,30-Sep-21,3.1865,3.162,10.15378225,9.998244
10:10:51,30-Sep-21,3.1865,3.163,10.15378225,10.004569
10:10:51,30-Sep-21,3.1865,3.165,10.15378225,10.017225
10:10:51,30-Sep-21,3.1865,3.166,10.15378225,10.023556
10:10:51,30-Sep-21,3.1865,3.167,10.15378225,10.029889
10:10:51,30-Sep-21,3.211,3.168,10.310521,10.036224
10:10:51,30-Sep-21,3.211,3.169,10.310521,10.042561
10:10:51,30-Sep-21,3.211,3.169,10.310521,10.042561
10:10:51,30-Sep-21,3.211,3.17,10.310521,10.0489
10:10:51,30-Sep-21,3.211,3.17,10.310521,10.0489
10:10:51,30-Sep-21,3.211,3.17,10.310521,10.0489
10:10:51,30-Sep-21,3.211,3.171,10.310521,10.055241
10:10:51,30-Sep-21,3.211,3.17,10.310521,10.0489
10:10:51,30-Sep-21,3.2065,3.17,10.28164225,10.0489
10:10:51,30-Sep-21,3.2065,3.17,10.28164225,10.0489
10:10:51,30-Sep-21,3.2065,3.17,10.28164225,10.0489
10:10:51,30-Sep-21,3.182,3.169,10.125124,10.042561
10:10:51,30-Sep-21,3.182,3.169,10.125124,10.042561
10:10:51,30-Sep-21,3.182,3.168,10.125124,10.036224
10:10:51,30-Sep-21,3.167,3.168,10.029889,10.036224
10:10:51,30-Sep-21,3.167,3.167,10.029889,10.029889
10:10:51,30-Sep-21,3.167,3.166,10.029889,10.023556
10:10:51,30-Sep-21,3.123,3.166,9.753129,10.023556
10:10:51,30-Sep-21,3.123,3.165,9.753129,10.017225
10:10:51,30-Sep-21,3.123,3.164,9.753129,10.010896
10:10:51,30-Sep-21,3.123,3.164,9.753129,10.010896
10:10:51,30-Sep-21,3.1135,3.163,9.69388225,10.004569
10:10:51,30-Sep-21,3.1135,3.163,9.69388225,10.004569
10:10:51,30-Sep-21,3.1135,3.162,9.69388225,9.998244
10:10:51,30-Sep-21,3.1135,3.162,9.69388225,9.998244
10:10:51,30-Sep-21,3.1135,3.162,9.69388225,9.998244
10:10:51,30-Sep-21,3.1135,3.162,9.69388225,9.998244
10:10:51,30-Sep-21,3.1085,3.162,9.66277225,9.998244
10:10:51,30-Sep-21,3.1085,3.162,9.66277225,9.998244
10:10:51,30-Sep-21,3.1085,3.162,9.66277225,9.998244
10:10:51,30-Sep-21,3.123,3.162,9.753129,9.998244
10:10:51,30-Sep-21,3.123,3.162,9.753129,9.998244
10:10:51,30-Sep-21,3.123,3.163,9.753129,10.004569
10:10:51,30-Sep-21,3.1915,3.163,10.18567225,10.004569
10:10:51,30-Sep-21,3.1915,3.163,10.18567225,10.004569
10:10:51,30-Sep-21,3.1915,3.164,10.18567225,10.010896
10:10:51,30-Sep-21,3.2065,3.164,10.28164225,10.010896
10:10:51,30-Sep-21,3.2065,3.164,10.28164225,10.010896
10:10:51,30-Sep-21,3.2065,3.165,10.28164225,10.017225
10:10:51,30-Sep-21,3.2065,3.165,10.28164225,10.017225
10:10:51,30-Sep-21,3.2065,3.165,10.28164225,10.017225
10:10:51,30-Sep-21,3.2065,3.166,10.28164225,10.023556
10:10:51,30-Sep-21,3.211,3.166,10.310521,10.023556
10:10:51,30-Sep-21,3.211,3.166,10.310521,10.023556
10:10:51,30-Sep-21,3.211,3.166,10.310521,10.023556
10:10:51,30-Sep-21,3.211,3.166,10.310521,10.023556
10:10:51,30-Sep-21,3.2015,3.166,10.24960225,10.023556
10:10:51,30-Sep-21,3.2015,3.166,10.24960225,10.023556
10:10:51,30-Sep-21,3.1915,3.166,10.18567225,10.023556
10:10:51,30-Sep-21,3.1915,3.166,10.18567225,10.023556
10:10:51,30-Sep-21,3.1915,3.166,10.18567225,10.023556
10:10:51,30-Sep-21,3.1525,3.166,9.93825625,10.023556
10:10:51,30-Sep-21,3.1525,3.166,9.93825625,10.023556
10:10:51,30-Sep-21,3.1525,3.166,9.93825625,10.023556
10:10:51,30-Sep-21,3.1525,3.165,9.93825625,10.017225
10:10:51,30-Sep-21,3.138,3.165,9.847044,10.017225
10:10:52,30-Sep-21,3.138,3.165,9.847044,10.017225
10:10:52,30-Sep-21,3.138,3.165,9.847044,10.017225
10:10:52,30-Sep-21,3.1085,3.164,9.66277225,10.010896
10:10:52,30-Sep-21,3.1085,3.164,9.66277225,10.010896
10:10:52,30-Sep-21,3.1035,3.164,9.63171225,10.010896
10:10:52,30-Sep-21,3.1035,3.164,9.63171225,10.010896
10:10:52,30-Sep-21,3.1035,3.164,9.63171225,10.010896
10:10:52,30-Sep-21,3.1425,3.164,9.87530625,10.010896
10:10:52,30-Sep-21,3.1425,3.163,9.87530625,10.004569
10:10:52,30-Sep-21,3.1425,3.163,9.87530625,10.004569
10:10:52,30-Sep-21,3.1425,3.163,9.87530625,10.004569
10:10:52,30-Sep-21,3.1425,3.163,9.87530625,10.004569
10:10:52,30-Sep-21,3.167,3.163,10.029889,10.004569
10:10:52,30-Sep-21,3.1915,3.163,10.18567225,10.004569
10:10:52,30-Sep-21,3.1915,3.163,10.18567225,10.004569
10:10:52,30-Sep-21,3.1915,3.162,10.18567225,9.998244
10:10:52,30-Sep-21,3.1915,3.162,10.18567225,9.998244
10:10:52,30-Sep-21,3.216,3.162,10.342656,9.998244
10:10:52,30-Sep-21,3.216,3.162,10.342656,9.998244
10:10:52,30-Sep-21,3.211,3.161,10.310521,9.991921
10:10:52,30-Sep-21,3.211,3.161,10.310521,9.991921
10:10:52,30-Sep-21,3.211,3.161,10.310521,9.991921
10:10:52,30-Sep-21,3.1865,3.161,10.15378225,9.991921
10:10:52,30-Sep-21,3.1865,3.16,10.15378225,9.9856
10:10:52,30-Sep-21,3.1865,3.16,10.15378225,9.9856
10:10:52,30-Sep-21,3.1865,3.159,10.15378225,9.979281
10:10:52,30-Sep-21,3.1865,3.159,10.15378225,9.979281
10:10:52,30-Sep-21,3.172,3.159,10.061584,9.979281
10:10:52,30-Sep-21,3.128,3.158,9.784384,9.972964
10:10:52,30-Sep-21,3.128,3.158,9.784384,9.972964
10:10:52,30-Sep-21,3.128,3.157,9.784384,9.966649
10:10:52,30-Sep-21,3.128,3.157,9.784384,9.966649
10:10:52,30-Sep-21,3.1185,3.157,9.72504225,9.966649
10:10:52,30-Sep-21,3.1185,3.156,9.72504225,9.960336
10:10:52,30-Sep-21,3.1185,3.156,9.72504225,9.960336
10:10:52,30-Sep-21,3.1135,3.156,9.69388225,9.960336
10:10:52,30-Sep-21,3.1135,3.156,9.69388225,9.960336
10:10:52,30-Sep-21,3.123,3.156,9.753129,9.960336
10:10:52,30-Sep-21,3.123,3.156,9.753129,9.960336
10:10:52,30-Sep-21,3.123,3.156,9.753129,9.960336
10:10:52,30-Sep-21,3.123,3.156,9.753129,9.960336
10:10:52,30-Sep-21,3.123,3.156,9.753129,9.960336
10:10:52,30-Sep-21,3.123,3.156,9.753129,9.960336
10:10:52,30-Sep-21,3.1425,3.156,9.87530625,9.960336
10:10:52,30-Sep-21,3.1425,3.156,9.87530625,9.960336
10:10:52,30-Sep-21,3.2015,3.156,10.24960225,9.960336
10:10:52,30-Sep-21,3.2015,3.156,10.24960225,9.960336
10:10:52,30-Sep-21,3.211,3.156,10.310521,9.960336
10:10:52,30-Sep-21,3.211,3.156,10.310521,9.960336
10:10:52,30-Sep-21,3.211,3.157,10.310521,9.966649
10:10:52,30-Sep-21,3.2015,3.157,10.24960225,9.966649
10:10:52,30-Sep-21,3.2015,3.157,10.24960225,9.966649
10:10:52,30-Sep-21,3.2015,3.157,10.24960225,9.966649
10:10:52,30-Sep-21,3.1915,3.157,10.18567225,9.966649
10:10:52,30-Sep-21,3.1915,3.157,10.18567225,9.966649
10:10:52,30-Sep-21,3.1915,3.157,10.18567225,9.966649
10:10:52,30-Sep-21,3.1525,3.157,9.93825625,9.966649
10:10:52,30-Sep-21,3.1525,3.157,9.93825625,9.966649
10:10:52,30-Sep-21,3.1525,3.158,9.93825625,9.972964
10:10:52,30-Sep-21,3.1525,3.158,9.93825625,9.972964
10:10:52,30-Sep-21,3.138,3.158,9.847044,9.972964
10:10:52,30-Sep-21,3.138,3.158,9.847044,9.972964
10:10:52,30-Sep-21,3.1085,3.158,9.66277225,9.972964
10:10:52,30-Sep-21,3.1085,3.158,9.66277225,9.972964
10:10:52,30-Sep-21,3.1085,3.158,9.66277225,9.972964
10:10:52,30-Sep-21,3.1085,3.159,9.66277225,9.979281
10:10:52,30-Sep-21,3.1085,3.159,9.66277225,9.979281
10:10:52,30-Sep-21,3.1085,3.159,9.66277225,9.979281
10:10:52,30-Sep-21,3.1085,3.159,9.66277225,9.979281
10:10:52,30-Sep-21,3.1085,3.16,9.66277225,9.9856
10:10:52,30-Sep-21,3.167,3.16,10.029889,9.9856
10:10:52,30-Sep-21,3.167,3.16,10.029889,9.9856
10:10:52,30-Sep-21,3.167,3.16,10.029889,9.9856
10:10:52,30-Sep-21,3.167,3.161,10.029889,9.991921
10:10:52,30-Sep-21,3.1915,3.161,10.18567225,9.991921
10:10:52,30-Sep-21,3.1915,3.161,10.18567225,9.991921
10:10:52,30-Sep-21,3.1915,3.161,10.18567225,9.991921
10:10:52,30-Sep-21,3.221,3.161,10.374841,9.991921
10:10:52,30-Sep-21,3.221,3.162,10.374841,9.998244
10:10:52,30-Sep-21,3.216,3.162,10.342656,9.998244
10:10:52,30-Sep-21,3.216,3.162,10.342656,9.998244
10:10:52,30-Sep-21,3.216,3.162,10.342656,9.998244
10:10:52,30-Sep-21,3.1865,3.162,10.15378225,9.998244
10:10:52,30-Sep-21,3.172,3.162,10.061584,9.998244
10:10:52,30-Sep-21,3.172,3.162,10.061584,9.998244
10:10:52,30-Sep-21,3.133,3.162,9.815689,9.998244
10:10:52,30-Sep-21,3.1185,3.162,9.72504225,9.998244
10:10:52,30-Sep-21,3.1185,3.162,9.72504225,9.998244
10:10:52,30-Sep-21,3.1135,3.162,9.69388225,9.998244
10:10:52,30-Sep-21,3.1135,3.162,9.69388225,9.998244
10:10:52,30-Sep-21,3.128,3.161,9.784384,9.991921
10:10:52,30-Sep-21,3.128,3.161,9.784384,9.991921
10:10:52,30-Sep-21,3.128,3.161,9.784384,9.991921
10:10:52,30-Sep-21,3.1425,3.161,9.87530625,9.991921
10:10:52,30-Sep-21,3.1425,3.161,9.87530625,9.991921
10:10:52,30-Sep-21,3.2065,3.161,10.28164225,9.991921
10:10:52,30-Sep-21,3.2065,3.161,10.28164225,9.991921
10:10:52,30-Sep-21,3.216,3.161,10.342656,9.991921
10:10:52,30-Sep-21,3.216,3.161,10.342656,9.991921
10:10:52,30-Sep-21,3.211,3.161,10.310521,9.991921
10:10:52,30-Sep-21,3.211,3.161,10.310521,9.991921
10:10:52,30-Sep-21,3.211,3.161,10.310521,9.991921
10:10:52,30-Sep-21,3.2015,3.161,10.24960225,9.991921
10:10:52,30-Sep-21,3.2015,3.162,10.24960225,9.998244
10:10:52,30-Sep-21,3.1575,3.162,9.96980625,9.998244
10:10:52,30-Sep-21,3.1425,3.162,9.87530625,9.998244
10:10:52,30-Sep-21,3.1425,3.163,9.87530625,10.004569
10:10:52,30-Sep-21,3.128,3.163,9.784384,10.004569
10:10:52,30-Sep-21,3.128,3.164,9.784384,10.010896
10:10:52,30-Sep-21,3.1085,3.165,9.66277225,10.017225
10:10:52,30-Sep-21,3.1085,3.165,9.66277225,10.017225
10:10:52,30-Sep-21,3.1085,3.166,9.66277225,10.023556
10:10:52,30-Sep-21,3.1085,3.167,9.66277225,10.029889
10:10:52,30-Sep-21,3.1135,3.168,9.69388225,10.036224
10:10:52,30-Sep-21,3.1135,3.169,9.69388225,10.042561
10:10:52,30-Sep-21,3.167,3.171,10.029889,10.055241
10:10:52,30-Sep-21,3.167,3.172,10.029889,10.061584
10:10:52,30-Sep-21,3.167,3.173,10.029889,10.067929
10:10:52,30-Sep-21,3.1915,3.174,10.18567225,10.074276
10:10:52,30-Sep-21,3.1915,3.176,10.18567225,10.086976
10:10:52,30-Sep-21,3.221,3.177,10.374841,10.093329
10:10:52,30-Sep-21,3.221,3.179,10.374841,10.106041
10:10:52,30-Sep-21,3.221,3.18,10.374841,10.1124
10:10:52,30-Sep-21,3.221,3.181,10.374841,10.118761
10:10:52,30-Sep-21,3.221,3.183,10.374841,10.131489
10:10:52,30-Sep-21,3.221,3.184,10.374841,10.137856
10:10:52,30-Sep-21,3.1915,3.185,10.18567225,10.144225
10:10:52,30-Sep-21,3.1915,3.186,10.18567225,10.150596
10:10:52,30-Sep-21,3.1915,3.187,10.18567225,10.156969
10:10:52,30-Sep-21,3.1915,3.188,10.18567225,10.163344
10:10:52,30-Sep-21,3.1915,3.189,10.18567225,10.169721
10:10:52,30-Sep-21,3.177,3.19,10.093329,10.1761
10:10:52,30-Sep-21,3.177,3.19,10.093329,10.1761
10:10:52,30-Sep-21,3.177,3.19,10.093329,10.1761
10:10:52,30-Sep-21,3.1625,3.191,10.00140625,10.182481
10:10:52,30-Sep-21,3.1625,3.19,10.00140625,10.1761
10:10:52,30-Sep-21,3.1625,3.19,10.00140625,10.1761
10:10:52,30-Sep-21,3.123,3.189,9.753129,10.169721
10:10:52,30-Sep-21,3.123,3.188,9.753129,10.163344
10:10:52,30-Sep-21,3.123,3.187,9.753129,10.156969
10:10:52,30-Sep-21,3.123,3.186,9.753129,10.150596
10:10:52,30-Sep-21,3.123,3.184,9.753129,10.137856
10:10:52,30-Sep-21,3.1185,3.181,9.72504225,10.118761
10:10:52,30-Sep-21,3.1185,3.178,9.72504225,10.099684
10:10:53,30-Sep-21,3.1185,3.175,9.72504225,10.080625
10:10:53,30-Sep-21,3.128,3.171,9.784384,10.055241
10:10:53,30-Sep-21,3.128,3.167,9.784384,10.029889
10:10:53,30-Sep-21,3.138,3.162,9.847044,9.998244
10:10:53,30-Sep-21,3.138,3.156,9.847044,9.960336
10:10:53,30-Sep-21,3.138,3.15,9.847044,9.9225
10:10:53,30-Sep-21,3.2065,3.144,10.28164225,9.884736
10:10:53,30-Sep-21,3.2065,3.136,10.28164225,9.834496
10:10:53,30-Sep-21,3.2065,3.128,10.28164225,9.784384
10:10:53,30-Sep-21,3.211,3.12,10.310521,9.7344
10:10:53,30-Sep-21,3.211,3.11,10.310521,9.6721
10:10:53,30-Sep-21,3.211,3.1,10.310521,9.61
10:10:53,30-Sep-21,3.211,3.089,10.310521,9.541921
10:10:53,30-Sep-21,3.1865,3.078,10.15378225,9.474084
10:10:53,30-Sep-21,3.1865,3.066,10.15378225,9.400356
10:10:53,30-Sep-21,3.1475,3.053,9.90675625,9.320809
10:10:53,30-Sep-21,3.1085,3.04,9.66277225,9.2416
10:10:53,30-Sep-21,3.1085,3.026,9.66277225,9.156676
10:10:53,30-Sep-21,3.04,3.012,9.2416,9.072144
10:10:53,30-Sep-21,3.04,2.997,9.2416,8.982009
10:10:53,30-Sep-21,2.996,2.981,8.976016,8.886361
10:10:53,30-Sep-21,2.996,2.966,8.976016,8.797156
10:10:53,30-Sep-21,2.996,2.949,8.976016,8.696601
10:10:53,30-Sep-21,2.947,2.933,8.684809,8.602489
10:10:53,30-Sep-21,2.908,2.916,8.456464,8.503056
10:10:53,30-Sep-21,2.908,2.9,8.456464,8.41
10:10:53,30-Sep-21,2.8935,2.883,8.37234225,8.311689
10:10:53,30-Sep-21,2.874,2.866,8.259876,8.213956
10:10:53,30-Sep-21,2.874,2.849,8.259876,8.116801
10:10:53,30-Sep-21,2.874,2.832,8.259876,8.020224
10:10:53,30-Sep-21,2.815,2.815,7.924225,7.924225
10:10:53,30-Sep-21,2.7665,2.799,7.65352225,7.834401
10:10:53,30-Sep-21,2.703,2.782,7.306209,7.739524
10:10:53,30-Sep-21,2.6635,2.766,7.09423225,7.650756
10:10:53,30-Sep-21,2.61,2.751,6.8121,7.568001
10:10:53,30-Sep-21,2.61,2.736,6.8121,7.485696
10:10:53,30-Sep-21,2.61,2.721,6.8121,7.403841
10:10:53,30-Sep-21,2.5855,2.707,6.68481025,7.327849
10:10:53,30-Sep-21,2.5855,2.693,6.68481025,7.252249
10:10:53,30-Sep-21,2.5805,2.68,6.65898025,7.1824
10:10:53,30-Sep-21,2.5805,2.667,6.65898025,7.112889
10:10:53,30-Sep-21,2.5805,2.655,6.65898025,7.049025
10:10:53,30-Sep-21,2.5805,2.644,6.65898025,6.990736
10:10:53,30-Sep-21,2.6245,2.633,6.88800025,6.932689
10:10:53,30-Sep-21,2.6245,2.623,6.88800025,6.880129
10:10:53,30-Sep-21,2.6245,2.613,6.88800025,6.827769
10:10:53,30-Sep-21,2.6245,2.605,6.88800025,6.786025
10:10:53,30-Sep-21,2.6245,2.596,6.88800025,6.739216
10:10:53,30-Sep-21,2.615,2.589,6.838225,6.702921
10:10:53,30-Sep-21,2.615,2.582,6.838225,6.666724
10:10:53,30-Sep-21,2.615,2.575,6.838225,6.630625
10:10:53,30-Sep-21,2.5955,2.569,6.73662025,6.599761
10:10:53,30-Sep-21,2.5955,2.564,6.73662025,6.574096
10:10:53,30-Sep-21,2.5805,2.559,6.65898025,6.548481
10:10:53,30-Sep-21,2.5805,2.554,6.65898025,6.522916
10:10:53,30-Sep-21,2.5805,2.55,6.65898025,6.5025
10:10:53,30-Sep-21,2.5805,2.547,6.65898025,6.487209
10:10:53,30-Sep-21,2.5805,2.544,6.65898025,6.471936
10:10:53,30-Sep-21,2.5365,2.541,6.43383225,6.456681
10:10:53,30-Sep-21,2.5365,2.539,6.43383225,6.446521
10:10:53,30-Sep-21,2.522,2.537,6.360484,6.436369
10:10:53,30-Sep-21,2.522,2.536,6.360484,6.431296
10:10:53,30-Sep-21,2.522,2.535,6.360484,6.426225
10:10:53,30-Sep-21,2.5025,2.534,6.26250625,6.421156
10:10:53,30-Sep-21,2.5025,2.533,6.26250625,6.416089
10:10:53,30-Sep-21,2.5025,2.533,6.26250625,6.416089
10:10:53,30-Sep-21,2.5025,2.532,6.26250625,6.411024
10:10:53,30-Sep-21,2.5465,2.532,6.48466225,6.411024
10:10:53,30-Sep-21,2.5465,2.533,6.48466225,6.416089
10:10:53,30-Sep-21,2.5465,2.533,6.48466225,6.416089
10:10:53,30-Sep-21,2.5465,2.533,6.48466225,6.416089
10:10:53,30-Sep-21,2.5465,2.534,6.48466225,6.421156
10:10:53,30-Sep-21,2.566,2.534,6.584356,6.421156
10:10:53,30-Sep-21,2.566,2.535,6.584356,6.426225
10:10:53,30-Sep-21,2.576,2.536,6.635776,6.431296
10:10:53,30-Sep-21,2.576,2.536,6.635776,6.431296
10:10:53,30-Sep-21,2.5855,2.537,6.68481025,6.436369
10:10:53,30-Sep-21,2.5855,2.538,6.68481025,6.441444
10:10:53,30-Sep-21,2.5805,2.539,6.65898025,6.446521
10:10:53,30-Sep-21,2.5805,2.539,6.65898025,6.446521
10:10:53,30-Sep-21,2.5515,2.54,6.51015225,6.4516
10:10:53,30-Sep-21,2.5515,2.54,6.51015225,6.4516
10:10:53,30-Sep-21,2.5515,2.541,6.51015225,6.456681
10:10:53,30-Sep-21,2.5365,2.542,6.43383225,6.461764
10:10:53,30-Sep-21,2.5075,2.542,6.28755625,6.461764
10:10:53,30-Sep-21,2.5075,2.542,6.28755625,6.461764
10:10:53,30-Sep-21,2.4975,2.543,6.23750625,6.466849
10:10:53,30-Sep-21,2.5075,2.543,6.28755625,6.466849
10:10:53,30-Sep-21,2.5075,2.543,6.28755625,6.466849
10:10:53,30-Sep-21,2.5075,2.543,6.28755625,6.466849
10:10:53,30-Sep-21,2.5415,2.544,6.45922225,6.471936
10:10:53,30-Sep-21,2.5415,2.544,6.45922225,6.471936
10:10:53,30-Sep-21,2.5805,2.544,6.65898025,6.471936
10:10:53,30-Sep-21,2.5805,2.544,6.65898025,6.471936
10:10:53,30-Sep-21,2.5855,2.544,6.68481025,6.471936
10:10:53,30-Sep-21,2.5855,2.544,6.68481025,6.471936
10:10:53,30-Sep-21,2.571,2.543,6.610041,6.466849
10:10:53,30-Sep-21,2.571,2.543,6.610041,6.466849
10:10:53,30-Sep-21,2.561,2.543,6.558721,6.466849
10:10:53,30-Sep-21,2.561,2.543,6.558721,6.466849
10:10:53,30-Sep-21,2.527,2.543,6.385729,6.466849
10:10:53,30-Sep-21,2.517,2.543,6.335289,6.466849
10:10:53,30-Sep-21,2.517,2.542,6.335289,6.461764
10:10:53,30-Sep-21,2.4975,2.542,6.23750625,6.461764
10:10:53,30-Sep-21,2.4975,2.542,6.23750625,6.461764
10:10:53,30-Sep-21,2.4975,2.542,6.23750625,6.461764
10:10:53,30-Sep-21,2.5025,2.542,6.26250625,6.461764
10:10:53,30-Sep-21,2.5025,2.542,6.26250625,6.461764
10:10:53,30-Sep-21,2.5025,2.542,6.26250625,6.461764
10:10:53,30-Sep-21,2.5025,2.541,6.26250625,6.456681
10:10:53,30-Sep-21,2.5025,2.541,6.26250625,6.456681
10:10:53,30-Sep-21,2.512,2.541,6.310144,6.456681
10:10:53,30-Sep-21,2.512,2.541,6.310144,6.456681
10:10:53,30-Sep-21,2.566,2.541,6.584356,6.456681
10:10:54,30-Sep-21,2.566,2.541,6.584356,6.456681
10:10:54,30-Sep-21,2.576,2.541,6.635776,6.456681
10:10:54,30-Sep-21,2.576,2.541,6.635776,6.456681
10:10:54,30-Sep-21,2.5905,2.541,6.71069025,6.456681
10:10:54,30-Sep-21,2.5905,2.541,6.71069025,6.456681
10:10:54,30-Sep-21,2.5905,2.541,6.71069025,6.456681
10:10:54,30-Sep-21,2.5855,2.541,6.68481025,6.456681
10:10:54,30-Sep-21,2.5855,2.541,6.68481025,6.456681
10:10:54,30-Sep-21,2.556,2.541,6.533136,6.456681
10:10:54,30-Sep-21,2.556,2.541,6.533136,6.456681
10:10:54,30-Sep-21,2.5465,2.541,6.48466225,6.456681
10:10:54,30-Sep-21,2.5465,2.541,6.48466225,6.456681
10:10:54,30-Sep-21,2.5465,2.54,6.48466225,6.4516
10:10:54,30-Sep-21,2.512,2.54,6.310144,6.4516
10:10:54,30-Sep-21,2.512,2.54,6.310144,6.4516
10:10:54,30-Sep-21,2.512,2.54,6.310144,6.4516
10:10:54,30-Sep-21,2.512,2.54,6.310144,6.4516
10:10:54,30-Sep-21,2.512,2.54,6.310144,6.4516
10:10:54,30-Sep-21,2.5075,2.54,6.28755625,6.4516
10:10:54,30-Sep-21,2.5075,2.54,6.28755625,6.4516
10:10:54,30-Sep-21,2.5025,2.54,6.26250625,6.4516
10:10:54,30-Sep-21,2.5025,2.541,6.26250625,6.456681
10:10:54,30-Sep-21,2.527,2.541,6.385729,6.456681
10:10:54,30-Sep-21,2.527,2.541,6.385729,6.456681
10:10:54,30-Sep-21,2.5465,2.541,6.48466225,6.456681
10:10:54,30-Sep-21,2.5855,2.541,6.68481025,6.456681
10:10:54,30-Sep-21,2.5855,2.541,6.68481025,6.456681
10:10:54,30-Sep-21,2.5905,2.542,6.71069025,6.461764
10:10:54,30-Sep-21,2.5905,2.542,6.71069025,6.461764
10:10:54,30-Sep-21,2.5905,2.542,6.71069025,6.461764
10:10:54,30-Sep-21,2.576,2.542,6.635776,6.461764
10:10:54,30-Sep-21,2.571,2.543,6.610041,6.466849
10:10:54,30-Sep-21,2.532,2.543,6.411024,6.466849
10:10:54,30-Sep-21,2.532,2.543,6.411024,6.466849
10:10:54,30-Sep-21,2.522,2.544,6.360484,6.471936
10:10:54,30-Sep-21,2.522,2.544,6.360484,6.471936
10:10:54,30-Sep-21,2.522,2.545,6.360484,6.477025
10:10:54,30-Sep-21,2.5025,2.545,6.26250625,6.477025
10:10:54,30-Sep-21,2.5075,2.546,6.28755625,6.482116
10:10:54,30-Sep-21,2.5075,2.546,6.28755625,6.482116
10:10:54,30-Sep-21,2.512,2.547,6.310144,6.487209
10:10:54,30-Sep-21,2.512,2.547,6.310144,6.487209
10:10:54,30-Sep-21,2.512,2.548,6.310144,6.492304
10:10:54,30-Sep-21,2.566,2.549,6.584356,6.497401
10:10:54,30-Sep-21,2.566,2.549,6.584356,6.497401
10:10:54,30-Sep-21,2.566,2.55,6.584356,6.5025
10:10:54,30-Sep-21,2.566,2.551,6.584356,6.507601
10:10:54,30-Sep-21,2.5805,2.551,6.65898025,6.507601
10:10:54,30-Sep-21,2.5805,2.552,6.65898025,6.512704
10:10:54,30-Sep-21,2.5805,2.553,6.65898025,6.517809
10:10:54,30-Sep-21,2.5955,2.554,6.73662025,6.522916
10:10:54,30-Sep-21,2.5955,2.554,6.73662025,6.522916
10:10:54,30-Sep-21,2.5905,2.555,6.71069025,6.528025
10:10:54,30-Sep-21,2.5905,2.556,6.71069025,6.533136
10:10:54,30-Sep-21,2.566,2.556,6.584356,6.533136
10:10:54,30-Sep-21,2.566,2.557,6.584356,6.538249
10:10:54,30-Sep-21,2.5515,2.558,6.51015225,6.543364
10:10:54,30-Sep-21,2.5515,2.559,6.51015225,6.548481
10:10:54,30-Sep-21,2.522,2.559,6.360484,6.548481
10:10:54,30-Sep-21,2.522,2.56,6.360484,6.5536
10:10:54,30-Sep-21,2.522,2.561,6.360484,6.558721
10:10:54,30-Sep-21,2.517,2.562,6.335289,6.563844
10:10:54,30-Sep-21,2.517,2.562,6.335289,6.563844
10:10:54,30-Sep-21,2.517,2.563,6.335289,6.568969
10:10:54,30-Sep-21,2.5415,2.564,6.45922225,6.574096
10:10:54,30-Sep-21,2.5415,2.564,6.45922225,6.574096
10:10:54,30-Sep-21,2.561,2.565,6.558721,6.579225
10:10:54,30-Sep-21,2.561,2.566,6.558721,6.584356
10:10:54,30-Sep-21,2.561,2.566,6.558721,6.584356
10:10:54,30-Sep-21,2.61,2.567,6.8121,6.589489
10:10:54,30-Sep-21,2.61,2.568,6.8121,6.594624
10:10:54,30-Sep-21,2.615,2.568,6.838225,6.594624
10:10:54,30-Sep-21,2.615,2.569,6.838225,6.599761
10:10:54,30-Sep-21,2.605,2.569,6.786025,6.599761
10:10:54,30-Sep-21,2.605,2.57,6.786025,6.6049
10:10:54,30-Sep-21,2.5955,2.57,6.73662025,6.6049
10:10:54,30-Sep-21,2.5955,2.57,6.73662025,6.6049
10:10:54,30-Sep-21,2.556,2.571,6.533136,6.610041
10:10:54,30-Sep-21,2.556,2.571,6.533136,6.610041
10:10:54,30-Sep-21,2.556,2.571,6.533136,6.610041
10:10:54,30-Sep-21,2.5415,2.571,6.45922225,6.610041
10:10:54,30-Sep-21,2.5415,2.571,6.45922225,6.610041
10:10:54,30-Sep-21,2.532,2.571,6.411024,6.610041
10:10:54,30-Sep-21,2.532,2.571,6.411024,6.610041
10:10:54,30-Sep-21,2.522,2.571,6.360484,6.610041
10:10:54,30-Sep-21,2.527,2.571,6.385729,6.610041
10:10:54,30-Sep-21,2.527,2.571,6.385729,6.610041
10:10:54,30-Sep-21,2.5805,2.571,6.65898025,6.610041
10:10:54,30-Sep-21,2.5805,2.57,6.65898025,6.6049
10:10:54,30-Sep-21,2.6,2.57,6.76,6.6049
10:10:54,30-Sep-21,2.6,2.57,6.76,6.6049
10:10:54,30-Sep-21,2.6195,2.569,6.86178025,6.599761
10:10:54,30-Sep-21,2.615,2.568,6.838225,6.594624
10:10:54,30-Sep-21,2.615,2.568,6.838225,6.594624
10:10:54,30-Sep-21,2.5905,2.567,6.71069025,6.589489
10:10:54,30-Sep-21,2.5905,2.566,6.71069025,6.584356
10:10:54,30-Sep-21,2.5805,2.565,6.65898025,6.579225
10:10:54,30-Sep-21,2.5805,2.564,6.65898025,6.574096
10:10:54,30-Sep-21,2.566,2.563,6.584356,6.568969
10:10:54,30-Sep-21,2.532,2.562,6.411024,6.563844
10:10:54,30-Sep-21,2.522,2.561,6.360484,6.558721
10:10:54,30-Sep-21,2.522,2.56,6.360484,6.5536
10:10:54,30-Sep-21,2.532,2.559,6.411024,6.548481
10:10:54,30-Sep-21,2.532,2.558,6.411024,6.543364
10:10:54,30-Sep-21,2.532,2.556,6.411024,6.533136
10:10:54,30-Sep-21,2.5415,2.555,6.45922225,6.528025
10:10:54,30-Sep-21,2.5805,2.554,6.65898025,6.522916
10:10:54,30-Sep-21,2.5805,2.552,6.65898025,6.512704
10:10:54,30-Sep-21,2.5855,2.551,6.68481025,6.507601
10:10:54,30-Sep-21,2.5855,2.55,6.68481025,6.5025
10:10:55,30-Sep-21,2.5855,2.548,6.68481025,6.492304
10:10:55,30-Sep-21,2.576,2.547,6.635776,6.487209
10:10:55,30-Sep-21,2.561,2.546,6.558721,6.482116
10:10:55,30-Sep-21,2.561,2.544,6.558721,6.471936
10:10:55,30-Sep-21,2.561,2.543,6.558721,6.466849
10:10:55,30-Sep-21,2.5515,2.542,6.51015225,6.461764
10:10:55,30-Sep-21,2.5515,2.541,6.51015225,6.456681
10:10:55,30-Sep-21,2.5515,2.54,6.51015225,6.4516
10:10:55,30-Sep-21,2.512,2.539,6.310144,6.446521
10:10:55,30-Sep-21,2.512,2.538,6.310144,6.441444
10:10:55,30-Sep-21,2.512,2.537,6.310144,6.436369
10:10:55,30-Sep-21,2.512,2.536,6.310144,6.431296
10:10:55,30-Sep-21,2.512,2.535,6.310144,6.426225
10:10:55,30-Sep-21,2.5025,2.535,6.26250625,6.426225
10:10:55,30-Sep-21,2.5025,2.534,6.26250625,6.421156
10:10:55,30-Sep-21,2.5025,2.534,6.26250625,6.421156
10:10:55,30-Sep-21,2.5025,2.533,6.26250625,6.416089
10:10:55,30-Sep-21,2.4925,2.533,6.21255625,6.416089
10:10:55,30-Sep-21,2.4925,2.533,6.21255625,6.416089
10:10:55,30-Sep-21,2.4925,2.533,6.21255625,6.416089
10:10:55,30-Sep-21,2.4925,2.532,6.21255625,6.411024
10:10:55,30-Sep-21,2.4925,2.532,6.21255625,6.411024
10:10:55,30-Sep-21,2.5415,2.533,6.45922225,6.416089
10:10:55,30-Sep-21,2.5415,2.533,6.45922225,6.416089
10:10:55,30-Sep-21,2.5415,2.533,6.45922225,6.416089
10:10:55,30-Sep-21,2.5415,2.533,6.45922225,6.416089
10:10:55,30-Sep-21,2.561,2.533,6.558721,6.416089
10:10:55,30-Sep-21,2.561,2.534,6.558721,6.421156
10:10:55,30-Sep-21,2.561,2.534,6.558721,6.421156
10:10:55,30-Sep-21,2.561,2.534,6.558721,6.421156
10:10:55,30-Sep-21,2.561,2.534,6.558721,6.421156
10:10:55,30-Sep-21,2.576,2.534,6.635776,6.421156
10:10:55,30-Sep-21,2.576,2.535,6.635776,6.426225
10:10:55,30-Sep-21,2.576,2.535,6.635776,6.426225
10:10:55,30-Sep-21,2.576,2.535,6.635776,6.426225
10:10:55,30-Sep-21,2.566,2.535,6.584356,6.426225
10:10:55,30-Sep-21,2.566,2.535,6.584356,6.426225
10:10:55,30-Sep-21,2.5365,2.535,6.43383225,6.426225
10:10:55,30-Sep-21,2.5365,2.535,6.43383225,6.426225
10:10:55,30-Sep-21,2.5365,2.535,6.43383225,6.426225
10:10:55,30-Sep-21,2.527,2.535,6.385729,6.426225
10:10:55,30-Sep-21,2.527,2.535,6.385729,6.426225
10:10:55,30-Sep-21,2.4975,2.535,6.23750625,6.426225
10:10:55,30-Sep-21,2.488,2.535,6.190144,6.426225
10:10:55,30-Sep-21,2.488,2.535,6.190144,6.426225
10:10:55,30-Sep-21,2.5025,2.535,6.26250625,6.426225
10:10:55,30-Sep-21,2.517,2.535,6.335289,6.426225
10:10:55,30-Sep-21,2.517,2.534,6.335289,6.421156
10:10:55,30-Sep-21,2.566,2.534,6.584356,6.421156
10:10:55,30-Sep-21,2.566,2.534,6.584356,6.421156
10:10:55,30-Sep-21,2.566,2.534,6.584356,6.421156
10:10:55,30-Sep-21,2.566,2.534,6.584356,6.421156
10:10:55,30-Sep-21,2.566,2.533,6.584356,6.416089
10:10:55,30-Sep-21,2.5465,2.533,6.48466225,6.416089
10:10:55,30-Sep-21,2.5465,2.533,6.48466225,6.416089
10:10:55,30-Sep-21,2.5365,2.533,6.43383225,6.416089
10:10:55,30-Sep-21,2.5365,2.532,6.43383225,6.411024
10:10:55,30-Sep-21,2.5365,2.532,6.43383225,6.411024
10:10:55,30-Sep-21,2.488,2.532,6.190144,6.411024
10:10:55,30-Sep-21,2.488,2.532,6.190144,6.411024
10:10:55,30-Sep-21,2.488,2.532,6.190144,6.411024
10:10:55,30-Sep-21,2.478,2.532,6.140484,6.411024
10:10:55,30-Sep-21,2.478,2.531,6.140484,6.405961
10:10:55,30-Sep-21,2.478,2.531,6.140484,6.405961
10:10:55,30-Sep-21,2.527,2.531,6.385729,6.405961
10:10:55,30-Sep-21,2.527,2.531,6.385729,6.405961
10:10:55,30-Sep-21,2.5465,2.531,6.48466225,6.405961
10:10:55,30-Sep-21,2.5465,2.531,6.48466225,6.405961
10:10:55,30-Sep-21,2.5465,2.531,6.48466225,6.405961
10:10:55,30-Sep-21,2.5465,2.531,6.48466225,6.405961
10:10:55,30-Sep-21,2.5465,2.531,6.48466225,6.405961
10:10:55,30-Sep-21,2.5465,2.531,6.48466225,6.405961
10:10:55,30-Sep-21,2.556,2.53,6.533136,6.4009
10:10:55,30-Sep-21,2.556,2.53,6.533136,6.4009
10:10:55,30-Sep-21,2.561,2.53,6.558721,6.4009
10:10:55,30-Sep-21,2.561,2.53,6.558721,6.4009
10:10:55,30-Sep-21,2.556,2.53,6.533136,6.4009
10:10:55,30-Sep-21,2.556,2.53,6.533136,6.4009
10:10:55,30-Sep-21,2.527,2.529,6.385729,6.395841
10:10:55,30-Sep-21,2.527,2.529,6.385729,6.395841
10:10:55,30-Sep-21,2.517,2.529,6.335289,6.395841
10:10:55,30-Sep-21,2.517,2.529,6.335289,6.395841
10:10:55,30-Sep-21,2.517,2.528,6.335289,6.390784
10:10:55,30-Sep-21,2.488,2.528,6.190144,6.390784
10:10:55,30-Sep-21,2.488,2.528,6.190144,6.390784
10:10:55,30-Sep-21,2.483,2.527,6.165289,6.385729
10:10:55,30-Sep-21,2.483,2.527,6.165289,6.385729
10:10:55,30-Sep-21,2.4975,2.527,6.23750625,6.385729
10:10:55,30-Sep-21,2.4975,2.526,6.23750625,6.380676
10:10:55,30-Sep-21,2.4975,2.526,6.23750625,6.380676
10:10:55,30-Sep-21,2.5365,2.526,6.43383225,6.380676
10:10:55,30-Sep-21,2.5365,2.526,6.43383225,6.380676
10:10:55,30-Sep-21,2.576,2.525,6.635776,6.375625
10:10:55,30-Sep-21,2.576,2.525,6.635776,6.375625
10:10:55,30-Sep-21,2.576,2.525,6.635776,6.375625
10:10:55,30-Sep-21,2.566,2.525,6.584356,6.375625
10:10:55,30-Sep-21,2.566,2.525,6.584356,6.375625
10:10:55,30-Sep-21,2.566,2.524,6.584356,6.370576
10:10:55,30-Sep-21,2.556,2.524,6.533136,6.370576
10:10:55,30-Sep-21,2.527,2.524,6.385729,6.370576
10:10:55,30-Sep-21,2.527,2.525,6.385729,6.375625
10:10:55,30-Sep-21,2.517,2.525,6.335289,6.375625
10:10:55,30-Sep-21,2.5075,2.525,6.28755625,6.375625
10:10:55,30-Sep-21,2.5075,2.526,6.28755625,6.380676
10:10:55,30-Sep-21,2.5075,2.526,6.28755625,6.380676
10:10:55,30-Sep-21,2.512,2.527,6.310144,6.385729
10:10:55,30-Sep-21,2.512,2.528,6.310144,6.390784
10:10:55,30-Sep-21,2.522,2.529,6.360484,6.395841
10:10:55,30-Sep-21,2.5805,2.531,6.65898025,6.405961
10:10:55,30-Sep-21,2.5805,2.532,6.65898025,6.411024
10:10:55,30-Sep-21,2.5955,2.534,6.73662025,6.421156
10:10:55,30-Sep-21,2.605,2.536,6.786025,6.431296
10:10:55,30-Sep-21,2.605,2.539,6.786025,6.446521
10:10:55,30-Sep-21,2.605,2.541,6.786025,6.456681
10:10:55,30-Sep-21,2.605,2.544,6.786025,6.471936
10:10:55,30-Sep-21,2.576,2.548,6.635776,6.492304
10:10:56,30-Sep-21,2.5515,2.552,6.51015225,6.512704
10:10:56,30-Sep-21,2.5515,2.556,6.51015225,6.533136
10:10:56,30-Sep-21,2.4975,2.56,6.23750625,6.5536
10:10:56,30-Sep-21,2.4975,2.565,6.23750625,6.579225
10:10:56,30-Sep-21,2.478,2.571,6.140484,6.610041
10:10:56,30-Sep-21,2.478,2.576,6.140484,6.635776
10:10:56,30-Sep-21,2.478,2.583,6.140484,6.671889
10:10:56,30-Sep-21,2.473,2.589,6.115729,6.702921
10:10:56,30-Sep-21,2.5025,2.596,6.26250625,6.739216
10:10:56,30-Sep-21,2.5025,2.604,6.26250625,6.780816
10:10:56,30-Sep-21,2.5465,2.611,6.48466225,6.817321
10:10:56,30-Sep-21,2.5465,2.62,6.48466225,6.8644
10:10:56,30-Sep-21,2.6345,2.628,6.94059025,6.906384
10:10:56,30-Sep-21,2.6345,2.637,6.94059025,6.953769
10:10:56,30-Sep-21,2.6835,2.646,7.20117225,7.001316
10:10:56,30-Sep-21,2.6835,2.656,7.20117225,7.054336
10:10:56,30-Sep-21,2.6835,2.665,7.20117225,7.102225
10:10:56,30-Sep-21,2.6835,2.675,7.20117225,7.155625
10:10:56,30-Sep-21,2.6835,2.685,7.20117225,7.209225
10:10:56,30-Sep-21,2.7075,2.696,7.33055625,7.268416
10:10:56,30-Sep-21,2.7075,2.706,7.33055625,7.322436
10:10:56,30-Sep-21,2.7615,2.717,7.62588225,7.382089
10:10:56,30-Sep-21,2.7615,2.727,7.62588225,7.436529
10:10:56,30-Sep-21,2.7615,2.738,7.62588225,7.496644
10:10:56,30-Sep-21,2.7665,2.748,7.65352225,7.551504
10:10:56,30-Sep-21,2.7665,2.759,7.65352225,7.612081
10:10:56,30-Sep-21,2.786,2.77,7.761796,7.6729
10:10:56,30-Sep-21,2.786,2.78,7.761796,7.7284
10:10:56,30-Sep-21,2.786,2.79,7.761796,7.7841
10:10:56,30-Sep-21,2.786,2.8,7.761796,7.84
10:10:56,30-Sep-21,2.8005,2.81,7.84280025,7.8961
10:10:56,30-Sep-21,2.8105,2.82,7.89891025,7.9524
10:10:56,30-Sep-21,2.835,2.829,8.037225,8.003241
10:10:56,30-Sep-21,2.835,2.838,8.037225,8.054244
10:10:56,30-Sep-21,2.8985,2.847,8.40130225,8.105409
10:10:56,30-Sep-21,2.918,2.856,8.514724,8.156736
10:10:56,30-Sep-21,2.918,2.864,8.514724,8.202496
10:10:56,30-Sep-21,2.9275,2.872,8.57025625,8.248384
10:10:56,30-Sep-21,2.9275,2.879,8.57025625,8.288641
10:10:56,30-Sep-21,2.9275,2.886,8.57025625,8.328996
10:10:56,30-Sep-21,2.9275,2.893,8.57025625,8.369449
10:10:56,30-Sep-21,2.903,2.899,8.427409,8.404201
10:10:56,30-Sep-21,2.8985,2.905,8.40130225,8.439025
10:10:56,30-Sep-21,2.8985,2.911,8.40130225,8.473921
10:10:56,30-Sep-21,2.8985,2.916,8.40130225,8.503056
10:10:56,30-Sep-21,2.8935,2.921,8.37234225,8.532241
10:10:56,30-Sep-21,2.874,2.925,8.259876,8.555625
10:10:56,30-Sep-21,2.874,2.929,8.259876,8.579041
10:10:56,30-Sep-21,2.879,2.932,8.288641,8.596624
10:10:56,30-Sep-21,2.913,2.935,8.485569,8.614225
10:10:56,30-Sep-21,2.913,2.938,8.485569,8.631844
10:10:56,30-Sep-21,2.9425,2.941,8.65830625,8.649481
10:10:56,30-Sep-21,2.991,2.942,8.946081,8.655364
10:10:56,30-Sep-21,2.991,2.944,8.946081,8.667136
10:10:56,30-Sep-21,3.001,2.945,9.006001,8.673025
10:10:56,30-Sep-21,3.001,2.946,9.006001,8.678916
10:10:56,30-Sep-21,2.9865,2.947,8.91918225,8.684809
10:10:56,30-Sep-21,2.9865,2.947,8.91918225,8.684809
10:10:56,30-Sep-21,2.9765,2.947,8.85955225,8.684809
10:10:56,30-Sep-21,2.9765,2.947,8.85955225,8.684809
10:10:56,30-Sep-21,2.962,2.946,8.773444,8.678916
10:10:56,30-Sep-21,2.962,2.946,8.773444,8.678916
10:10:56,30-Sep-21,2.962,2.945,8.773444,8.673025
10:10:56,30-Sep-21,2.918,2.944,8.514724,8.667136
10:10:56,30-Sep-21,2.918,2.942,8.514724,8.655364
10:10:56,30-Sep-21,2.8985,2.941,8.40130225,8.649481
10:10:56,30-Sep-21,2.8985,2.939,8.40130225,8.637721
10:10:56,30-Sep-21,2.8835,2.937,8.31457225,8.625969
10:10:56,30-Sep-21,2.8835,2.936,8.31457225,8.620096
10:10:56,30-Sep-21,2.879,2.934,8.288641,8.608356
10:10:56,30-Sep-21,2.879,2.932,8.288641,8.596624
10:10:56,30-Sep-21,2.879,2.93,8.288641,8.5849
10:10:56,30-Sep-21,2.9325,2.928,8.59955625,8.573184
10:10:56,30-Sep-21,2.9325,2.926,8.59955625,8.561476
10:10:56,30-Sep-21,2.9425,2.924,8.65830625,8.549776
10:10:56,30-Sep-21,2.9425,2.922,8.65830625,8.538084
10:10:56,30-Sep-21,2.952,2.92,8.714304,8.5264
10:10:56,30-Sep-21,2.947,2.918,8.684809,8.514724
10:10:56,30-Sep-21,2.947,2.916,8.684809,8.503056
10:10:56,30-Sep-21,2.913,2.914,8.485569,8.491396
10:10:56,30-Sep-21,2.913,2.912,8.485569,8.479744
10:10:56,30-Sep-21,2.913,2.91,8.485569,8.4681
10:10:56,30-Sep-21,2.8985,2.909,8.40130225,8.462281
10:10:56,30-Sep-21,2.8985,2.907,8.40130225,8.450649
10:10:56,30-Sep-21,2.8835,2.906,8.31457225,8.444836
10:10:56,30-Sep-21,2.8545,2.904,8.14817025,8.433216
10:10:56,30-Sep-21,2.8545,2.903,8.14817025,8.427409
10:10:56,30-Sep-21,2.8545,2.902,8.14817025,8.421604
10:10:56,30-Sep-21,2.879,2.9,8.288641,8.41
10:10:56,30-Sep-21,2.879,2.899,8.288641,8.404201
10:10:56,30-Sep-21,2.879,2.898,8.288641,8.398404
10:10:56,30-Sep-21,2.903,2.897,8.427409,8.392609
10:10:56,30-Sep-21,2.952,2.897,8.714304,8.392609
10:10:56,30-Sep-21,2.952,2.896,8.714304,8.386816
10:10:56,30-Sep-21,2.952,2.895,8.714304,8.381025
10:10:56,30-Sep-21,2.9375,2.895,8.62890625,8.381025
10:10:56,30-Sep-21,2.923,2.894,8.543929,8.375236
10:10:56,30-Sep-21,2.923,2.894,8.543929,8.375236
10:10:56,30-Sep-21,2.923,2.894,8.543929,8.375236
10:10:56,30-Sep-21,2.908,2.893,8.456464,8.369449
10:10:56,30-Sep-21,2.908,2.893,8.456464,8.369449
10:10:56,30-Sep-21,2.869,2.893,8.231161,8.369449
10:10:56,30-Sep-21,2.8545,2.893,8.14817025,8.369449
10:10:57,30-Sep-21,2.8545,2.893,8.14817025,8.369449
10:10:57,30-Sep-21,2.8445,2.893,8.09118025,8.369449
10:10:57,30-Sep-21,2.8445,2.894,8.09118025,8.375236
10:10:57,30-Sep-21,2.8445,2.894,8.09118025,8.375236
10:10:57,30-Sep-21,2.8545,2.894,8.14817025,8.375236
10:10:57,30-Sep-21,2.908,2.894,8.456464,8.375236
10:10:57,30-Sep-21,2.908,2.895,8.456464,8.381025
10:10:57,30-Sep-21,2.9275,2.895,8.57025625,8.381025
10:10:57,30-Sep-21,2.9425,2.896,8.65830625,8.386816
10:10:57,30-Sep-21,2.9425,2.896,8.65830625,8.386816
10:10:57,30-Sep-21,2.9425,2.897,8.65830625,8.392609
10:10:57,30-Sep-21,2.9375,2.897,8.62890625,8.392609
10:10:57,30-Sep-21,2.9325,2.898,8.59955625,8.398404
10:10:57,30-Sep-21,2.8935,2.899,8.37234225,8.404201
10:10:57,30-Sep-21,2.8935,2.899,8.37234225,8.404201
10:10:57,30-Sep-21,2.8835,2.9,8.31457225,8.41
10:10:57,30-Sep-21,2.8495,2.9,8.11965025,8.41
10:10:57,30-Sep-21,2.8495,2.901,8.11965025,8.415801
10:10:57,30-Sep-21,2.8495,2.901,8.11965025,8.415801
10:10:57,30-Sep-21,2.8445,2.902,8.09118025,8.421604
10:10:57,30-Sep-21,2.8445,2.903,8.09118025,8.427409
10:10:57,30-Sep-21,2.859,2.903,8.173881,8.427409
10:10:57,30-Sep-21,2.879,2.904,8.288641,8.433216
10:10:57,30-Sep-21,2.9375,2.904,8.62890625,8.433216
10:10:57,30-Sep-21,2.9375,2.904,8.62890625,8.433216
10:10:57,30-Sep-21,2.9375,2.905,8.62890625,8.439025
10:10:57,30-Sep-21,2.9425,2.905,8.65830625,8.439025
10:10:57,30-Sep-21,2.9425,2.905,8.65830625,8.439025
10:10:57,30-Sep-21,2.9425,2.906,8.65830625,8.444836
10:10:57,30-Sep-21,2.9425,2.906,8.65830625,8.444836
10:10:57,30-Sep-21,2.9425,2.906,8.65830625,8.444836
10:10:57,30-Sep-21,2.9425,2.906,8.65830625,8.444836
10:10:57,30-Sep-21,2.9425,2.906,8.65830625,8.444836
10:10:57,30-Sep-21,2.923,2.905,8.543929,8.439025
10:10:57,30-Sep-21,2.923,2.905,8.543929,8.439025
10:10:57,30-Sep-21,2.923,2.905,8.543929,8.439025
10:10:57,30-Sep-21,2.923,2.905,8.543929,8.439025
10:10:57,30-Sep-21,2.908,2.904,8.456464,8.433216
10:10:57,30-Sep-21,2.908,2.904,8.456464,8.433216
10:10:57,30-Sep-21,2.908,2.903,8.456464,8.427409
10:10:57,30-Sep-21,2.908,2.903,8.456464,8.427409
10:10:57,30-Sep-21,2.869,2.903,8.231161,8.427409
10:10:57,30-Sep-21,2.869,2.902,8.231161,8.421604
10:10:57,30-Sep-21,2.8545,2.901,8.14817025,8.415801
10:10:57,30-Sep-21,2.8545,2.901,8.14817025,8.415801
10:10:57,30-Sep-21,2.8445,2.9,8.09118025,8.41
10:10:57,30-Sep-21,2.8445,2.9,8.09118025,8.41
10:10:57,30-Sep-21,2.8495,2.899,8.11965025,8.404201
10:10:57,30-Sep-21,2.8495,2.899,8.11965025,8.404201
10:10:57,30-Sep-21,2.908,2.898,8.456464,8.398404
10:10:57,30-Sep-21,2.908,2.898,8.456464,8.398404
10:10:57,30-Sep-21,2.908,2.898,8.456464,8.398404
10:10:57,30-Sep-21,2.9275,2.897,8.57025625,8.392609
10:10:57,30-Sep-21,2.9375,2.897,8.62890625,8.392609
10:10:57,30-Sep-21,2.9375,2.896,8.62890625,8.386816
10:10:57,30-Sep-21,2.9425,2.896,8.65830625,8.386816
10:10:57,30-Sep-21,2.9425,2.895,8.65830625,8.381025
10:10:57,30-Sep-21,2.9375,2.895,8.62890625,8.381025
10:10:57,30-Sep-21,2.8985,2.895,8.40130225,8.381025
10:10:57,30-Sep-21,2.8985,2.894,8.40130225,8.375236
10:10:57,30-Sep-21,2.8985,2.894,8.40130225,8.375236
10:10:57,30-Sep-21,2.8885,2.894,8.34343225,8.375236
10:10:57,30-Sep-21,2.8545,2.894,8.14817025,8.375236
10:10:57,30-Sep-21,2.8445,2.893,8.09118025,8.369449
10:10:57,30-Sep-21,2.8445,2.893,8.09118025,8.369449
10:10:57,30-Sep-21,2.859,2.893,8.173881,8.369449
10:10:57,30-Sep-21,2.859,2.893,8.173881,8.369449
10:10:57,30-Sep-21,2.859,2.893,8.173881,8.369449
10:10:57,30-Sep-21,2.8835,2.893,8.31457225,8.369449
10:10:57,30-Sep-21,2.908,2.893,8.456464,8.369449
10:10:57,30-Sep-21,2.908,2.893,8.456464,8.369449
10:10:57,30-Sep-21,2.947,2.893,8.684809,8.369449
10:10:57,30-Sep-21,2.947,2.893,8.684809,8.369449
10:10:57,30-Sep-21,2.9275,2.893,8.57025625,8.369449
10:10:57,30-Sep-21,2.9275,2.893,8.57025625,8.369449
10:10:57,30-Sep-21,2.918,2.893,8.514724,8.369449
10:10:57,30-Sep-21,2.918,2.893,8.514724,8.369449
10:10:57,30-Sep-21,2.874,2.893,8.259876,8.369449
10:10:57,30-Sep-21,2.874,2.893,8.259876,8.369449
10:10:57,30-Sep-21,2.864,2.893,8.202496,8.369449
10:10:57,30-Sep-21,2.8495,2.893,8.11965025,8.369449
10:10:57,30-Sep-21,2.8495,2.894,8.11965025,8.375236
10:10:57,30-Sep-21,2.8495,2.894,8.11965025,8.375236
10:10:57,30-Sep-21,2.8495,2.894,8.11965025,8.375236
10:10:57,30-Sep-21,2.8495,2.894,8.11965025,8.375236
10:10:57,30-Sep-21,2.859,2.894,8.173881,8.375236
10:10:57,30-Sep-21,2.9275,2.894,8.57025625,8.375236
10:10:57,30-Sep-21,2.9375,2.894,8.62890625,8.375236
10:10:57,30-Sep-21,2.9375,2.895,8.62890625,8.381025
10:10:57,30-Sep-21,2.947,2.895,8.684809,8.381025
10:10:57,30-Sep-21,2.947,2.895,8.684809,8.381025
10:10:57,30-Sep-21,2.947,2.895,8.684809,8.381025
10:10:57,30-Sep-21,2.9375,2.895,8.62890625,8.381025
10:10:57,30-Sep-21,2.903,2.895,8.427409,8.381025
10:10:57,30-Sep-21,2.8885,2.895,8.34343225,8.381025
10:10:57,30-Sep-21,2.8885,2.895,8.34343225,8.381025
10:10:57,30-Sep-21,2.8545,2.895,8.14817025,8.381025
10:10:57,30-Sep-21,2.8495,2.895,8.11965025,8.381025
10:10:57,30-Sep-21,2.8495,2.895,8.11965025,8.381025
10:10:57,30-Sep-21,2.8495,2.894,8.11965025,8.375236
10:10:57,30-Sep-21,2.8495,2.894,8.11965025,8.375236
10:10:58,30-Sep-21,2.879,2.894,8.288641,8.375236
10:10:58,30-Sep-21,2.879,2.894,8.288641,8.375236
10:10:58,30-Sep-21,2.8985,2.894,8.40130225,8.375236
10:10:58,30-Sep-21,2.9425,2.894,8.65830625,8.375236
10:10:58,30-Sep-21,2.9425,2.893,8.65830625,8.369449
10:10:58,30-Sep-21,2.9425,2.893,8.65830625,8.369449
10:10:58,30-Sep-21,2.9425,2.893,8.65830625,8.369449
10:10:58,30-Sep-21,2.923,2.892,8.543929,8.363664
10:10:58,30-Sep-21,2.923,2.892,8.543929,8.363664
10:10:58,30-Sep-21,2.913,2.892,8.485569,8.363664
10:10:58,30-Sep-21,2.869,2.891,8.231161,8.357881
10:10:58,30-Sep-21,2.869,2.891,8.231161,8.357881
10:10:58,30-Sep-21,2.859,2.891,8.173881,8.357881
10:10:58,30-Sep-21,2.859,2.89,8.173881,8.3521
10:10:58,30-Sep-21,2.8495,2.89,8.11965025,8.3521
10:10:58,30-Sep-21,2.8495,2.89,8.11965025,8.3521
10:10:58,30-Sep-21,2.8445,2.889,8.09118025,8.346321
10:10:58,30-Sep-21,2.8545,2.889,8.14817025,8.346321
10:10:58,30-Sep-21,2.8545,2.888,8.14817025,8.340544
10:10:58,30-Sep-21,2.918,2.888,8.514724,8.340544
10:10:58,30-Sep-21,2.918,2.888,8.514724,8.340544
10:10:58,30-Sep-21,2.918,2.888,8.514724,8.340544
10:10:58,30-Sep-21,2.9325,2.887,8.59955625,8.334769
10:10:58,30-Sep-21,2.9425,2.887,8.65830625,8.334769
10:10:58,30-Sep-21,2.9425,2.887,8.65830625,8.334769
10:10:58,30-Sep-21,2.9375,2.887,8.62890625,8.334769
10:10:58,30-Sep-21,2.908,2.887,8.456464,8.334769
10:10:58,30-Sep-21,2.8885,2.887,8.34343225,8.334769
10:10:58,30-Sep-21,2.8885,2.887,8.34343225,8.334769
10:10:58,30-Sep-21,2.8885,2.887,8.34343225,8.334769
10:10:58,30-Sep-21,2.879,2.887,8.288641,8.334769
10:10:58,30-Sep-21,2.879,2.887,8.288641,8.334769
10:10:58,30-Sep-21,2.879,2.887,8.288641,8.334769
10:10:58,30-Sep-21,2.879,2.888,8.288641,8.340544
10:10:58,30-Sep-21,2.8495,2.888,8.11965025,8.340544
10:10:58,30-Sep-21,2.8495,2.888,8.11965025,8.340544
10:10:58,30-Sep-21,2.8495,2.889,8.11965025,8.346321
10:10:58,30-Sep-21,2.8495,2.89,8.11965025,8.3521
10:10:58,30-Sep-21,2.8495,2.89,8.11965025,8.3521
10:10:58,30-Sep-21,2.8495,2.891,8.11965025,8.357881
10:10:58,30-Sep-21,2.8495,2.892,8.11965025,8.363664
10:10:58,30-Sep-21,2.874,2.893,8.259876,8.369449
10:10:58,30-Sep-21,2.874,2.894,8.259876,8.375236
10:10:58,30-Sep-21,2.874,2.895,8.259876,8.381025
10:10:58,30-Sep-21,2.874,2.896,8.259876,8.386816
10:10:58,30-Sep-21,2.8985,2.897,8.40130225,8.392609
10:10:58,30-Sep-21,2.8985,2.899,8.40130225,8.404201
10:10:58,30-Sep-21,2.8985,2.9,8.40130225,8.41
10:10:58,30-Sep-21,2.947,2.901,8.684809,8.415801
10:10:58,30-Sep-21,2.947,2.902,8.684809,8.421604
10:10:58,30-Sep-21,2.952,2.904,8.714304,8.433216
10:10:58,30-Sep-21,2.952,2.905,8.714304,8.439025
10:10:58,30-Sep-21,2.952,2.906,8.714304,8.444836
10:10:58,30-Sep-21,2.9375,2.908,8.62890625,8.456464
10:10:58,30-Sep-21,2.9375,2.909,8.62890625,8.462281
10:10:58,30-Sep-21,2.9275,2.91,8.57025625,8.4681
10:10:58,30-Sep-21,2.9275,2.911,8.57025625,8.473921
10:10:58,30-Sep-21,2.9275,2.913,8.57025625,8.485569
10:10:58,30-Sep-21,2.9275,2.914,8.57025625,8.491396
10:10:58,30-Sep-21,2.9275,2.915,8.57025625,8.497225
10:10:58,30-Sep-21,2.9275,2.916,8.57025625,8.503056
10:10:58,30-Sep-21,2.923,2.917,8.543929,8.508889
10:10:58,30-Sep-21,2.923,2.918,8.543929,8.514724
10:10:58,30-Sep-21,2.8885,2.919,8.34343225,8.520561
10:10:58,30-Sep-21,2.8885,2.92,8.34343225,8.5264
10:10:58,30-Sep-21,2.8835,2.921,8.31457225,8.532241
10:10:58,30-Sep-21,2.8835,2.922,8.31457225,8.538084
10:10:58,30-Sep-21,2.874,2.923,8.259876,8.543929
10:10:58,30-Sep-21,2.874,2.924,8.259876,8.549776
10:10:58,30-Sep-21,2.8835,2.925,8.31457225,8.555625
10:10:58,30-Sep-21,2.8835,2.926,8.31457225,8.561476
10:10:58,30-Sep-21,2.8835,2.927,8.31457225,8.567329
10:10:58,30-Sep-21,2.9425,2.928,8.65830625,8.573184
10:10:58,30-Sep-21,2.9425,2.929,8.65830625,8.579041
10:10:58,30-Sep-21,2.962,2.93,8.773444,8.5849
10:10:58,30-Sep-21,2.962,2.931,8.773444,8.590761
10:10:58,30-Sep-21,2.9815,2.931,8.88934225,8.590761
10:10:58,30-Sep-21,2.9815,2.932,8.88934225,8.596624
10:10:58,30-Sep-21,2.9765,2.933,8.85955225,8.602489
10:10:58,30-Sep-21,2.9765,2.933,8.85955225,8.602489
10:10:58,30-Sep-21,2.9715,2.934,8.82981225,8.608356
10:10:58,30-Sep-21,2.9715,2.935,8.82981225,8.614225
10:10:58,30-Sep-21,2.9715,2.935,8.82981225,8.614225
10:10:58,30-Sep-21,2.9375,2.936,8.62890625,8.620096
10:10:58,30-Sep-21,2.9375,2.936,8.62890625,8.620096
10:10:58,30-Sep-21,2.9375,2.937,8.62890625,8.625969
10:10:58,30-Sep-21,2.923,2.937,8.543929,8.625969
10:10:58,30-Sep-21,2.923,2.938,8.543929,8.631844
10:10:58,30-Sep-21,2.923,2.938,8.543929,8.631844
10:10:58,30-Sep-21,2.8935,2.939,8.37234225,8.637721
10:10:58,30-Sep-21,2.8935,2.939,8.37234225,8.637721
10:10:58,30-Sep-21,2.8935,2.94,8.37234225,8.6436
10:10:58,30-Sep-21,2.8885,2.94,8.34343225,8.6436
10:10:58,30-Sep-21,2.8885,2.941,8.34343225,8.649481
10:10:58,30-Sep-21,2.8885,2.941,8.34343225,8.649481
10:10:58,30-Sep-21,2.913,2.942,8.485569,8.655364
10:10:58,30-Sep-21,2.913,2.942,8.485569,8.655364
10:10:58,30-Sep-21,2.913,2.943,8.485569,8.661249
10:10:58,30-Sep-21,2.913,2.943,8.485569,8.661249
10:10:58,30-Sep-21,2.947,2.944,8.684809,8.667136
10:10:58,30-Sep-21,3.006,2.944,9.036036,8.667136
10:10:58,30-Sep-21,3.006,2.945,9.036036,8.673025
10:10:58,30-Sep-21,3.0205,2.945,9.12342025,8.673025
10:10:58,30-Sep-21,3.0205,2.946,9.12342025,8.678916
10:10:58,30-Sep-21,3.0205,2.946,9.12342025,8.678916
10:10:58,30-Sep-21,3.0205,2.947,9.12342025,8.684809
10:10:58,30-Sep-21,2.996,2.947,8.976016,8.684809
10:10:58,30-Sep-21,2.9715,2.947,8.82981225,8.684809
10:10:58,30-Sep-21,2.9715,2.948,8.82981225,8.690704
10:10:58,30-Sep-21,2.9325,2.948,8.59955625,8.690704
10:10:58,30-Sep-21,2.9325,2.949,8.59955625,8.696601
10:10:58,30-Sep-21,2.913,2.949,8.485569,8.696601
10:10:58,30-Sep-21,2.913,2.949,8.485569,8.696601
10:10:58,30-Sep-21,2.913,2.95,8.485569,8.7025
10:10:58,30-Sep-21,2.8935,2.95,8.37234225,8.7025
10:10:58,30-Sep-21,2.8935,2.951,8.37234225,8.708401
10:10:58,30-Sep-21,2.8935,2.951,8.37234225,8.708401
10:10:58,30-Sep-21,2.8985,2.951,8.40130225,8.708401
10:10:58,30-Sep-21,2.8985,2.952,8.40130225,8.714304
10:10:58,30-Sep-21,2.957,2.952,8.743849,8.714304
10:10:58,30-Sep-21,2.957,2.953,8.743849,8.720209
10:10:58,30-Sep-21,2.957,2.953,8.743849,8.720209
10:10:58,30-Sep-21,2.9715,2.954,8.82981225,8.726116
10:10:58,30-Sep-21,2.9715,2.954,8.82981225,8.726116
10:10:59,30-Sep-21,2.9715,2.955,8.82981225,8.732025
10:10:59,30-Sep-21,2.9865,2.956,8.91918225,8.737936
10:10:59,30-Sep-21,2.9865,2.956,8.91918225,8.737936
10:10:59,30-Sep-21,2.9865,2.957,8.91918225,8.743849
10:10:59,30-Sep-21,2.9865,2.957,8.91918225,8.743849
10:10:59,30-Sep-21,2.991,2.958,8.946081,8.749764
10:10:59,30-Sep-21,2.991,2.958,8.946081,8.749764
10:10:59,30-Sep-21,2.9865,2.959,8.91918225,8.755681
10:10:59,30-Sep-21,2.9865,2.96,8.91918225,8.7616
10:10:59,30-Sep-21,2.952,2.96,8.714304,8.7616
10:10:59,30-Sep-21,2.952,2.961,8.714304,8.767521
10:10:59,30-Sep-21,2.947,2.961,8.684809,8.767521
10:10:59,30-Sep-21,2.947,2.962,8.684809,8.773444
10:10:59,30-Sep-21,2.913,2.963,8.485569,8.779369
10:10:59,30-Sep-21,2.913,2.963,8.485569,8.779369
10:10:59,30-Sep-21,2.913,2.964,8.485569,8.785296
10:10:59,30-Sep-21,2.913,2.965,8.485569,8.791225
10:10:59,30-Sep-21,2.9275,2.966,8.57025625,8.797156
10:10:59,30-Sep-21,2.952,2.966,8.714304,8.797156
10:10:59,30-Sep-21,2.952,2.967,8.714304,8.803089
10:10:59,30-Sep-21,3.011,2.968,9.066121,8.809024
10:10:59,30-Sep-21,3.0205,2.969,9.12342025,8.814961
10:10:59,30-Sep-21,3.0205,2.97,9.12342025,8.8209
10:10:59,30-Sep-21,3.0205,2.971,9.12342025,8.826841
10:10:59,30-Sep-21,3.0255,2.972,9.15365025,8.832784
10:10:59,30-Sep-21,3.011,2.972,9.066121,8.832784
10:10:59,30-Sep-21,3.011,2.973,9.066121,8.838729
10:10:59,30-Sep-21,2.996,2.974,8.976016,8.844676
10:10:59,30-Sep-21,2.957,2.976,8.743849,8.856576
10:10:59,30-Sep-21,2.957,2.977,8.743849,8.862529
10:10:59,30-Sep-21,2.957,2.978,8.743849,8.868484
10:10:59,30-Sep-21,2.947,2.979,8.684809,8.874441
10:10:59,30-Sep-21,2.9325,2.98,8.59955625,8.8804
10:10:59,30-Sep-21,2.9325,2.982,8.59955625,8.892324
10:10:59,30-Sep-21,2.9375,2.983,8.62890625,8.898289
10:10:59,30-Sep-21,2.991,2.985,8.946081,8.910225
10:10:59,30-Sep-21,2.991,2.986,8.946081,8.916196
10:10:59,30-Sep-21,2.991,2.988,8.946081,8.928144
10:10:59,30-Sep-21,3.0155,2.99,9.09324025,8.9401
10:10:59,30-Sep-21,3.0305,2.992,9.18393025,8.952064
10:10:59,30-Sep-21,3.0305,2.994,9.18393025,8.964036
10:10:59,30-Sep-21,3.045,2.996,9.272025,8.976016
10:10:59,30-Sep-21,3.04,2.998,9.2416,8.988004
10:10:59,30-Sep-21,3.04,3,9.2416,9
10:10:59,30-Sep-21,3.006,3.003,9.036036,9.018009
10:10:59,30-Sep-21,2.991,3.005,8.946081,9.030025
10:10:59,30-Sep-21,2.991,3.008,8.946081,9.048064
10:10:59,30-Sep-21,2.991,3.011,8.946081,9.066121
10:10:59,30-Sep-21,2.962,3.014,8.773444,9.084196
10:10:59,30-Sep-21,2.957,3.017,8.743849,9.102289
10:10:59,30-Sep-21,2.957,3.02,8.743849,9.1204
10:10:59,30-Sep-21,2.9715,3.023,8.82981225,9.138529
10:10:59,30-Sep-21,2.996,3.026,8.976016,9.156676
10:10:59,30-Sep-21,2.996,3.03,8.976016,9.1809
10:10:59,30-Sep-21,2.996,3.033,8.976016,9.199089
10:10:59,30-Sep-21,3.0305,3.037,9.18393025,9.223369
10:10:59,30-Sep-21,3.089,3.041,9.541921,9.247681
10:10:59,30-Sep-21,3.089,3.045,9.541921,9.272025
10:10:59,30-Sep-21,3.094,3.049,9.572836,9.296401
10:10:59,30-Sep-21,3.094,3.053,9.572836,9.320809
10:10:59,30-Sep-21,3.094,3.057,9.572836,9.345249
10:10:59,30-Sep-21,3.094,3.061,9.572836,9.369721
10:10:59,30-Sep-21,3.1085,3.066,9.66277225,9.400356
10:10:59,30-Sep-21,3.084,3.07,9.511056,9.4249
10:10:59,30-Sep-21,3.084,3.075,9.511056,9.455625
10:10:59,30-Sep-21,3.084,3.079,9.511056,9.480241
10:10:59,30-Sep-21,3.084,3.084,9.511056,9.511056
10:10:59,30-Sep-21,3.0745,3.088,9.45255025,9.535744
10:10:59,30-Sep-21,3.0745,3.093,9.45255025,9.566649
10:10:59,30-Sep-21,3.0745,3.098,9.45255025,9.597604
10:10:59,30-Sep-21,3.084,3.102,9.511056,9.622404
10:10:59,30-Sep-21,3.084,3.107,9.511056,9.653449
10:10:59,30-Sep-21,3.084,3.112,9.511056,9.684544
10:10:59,30-Sep-21,3.084,3.117,9.511056,9.715689
10:10:59,30-Sep-21,3.084,3.121,9.511056,9.740641
10:10:59,30-Sep-21,3.084,3.126,9.511056,9.771876
10:10:59,30-Sep-21,3.0985,3.131,9.60070225,9.803161
10:10:59,30-Sep-21,3.0985,3.135,9.60070225,9.828225
10:10:59,30-Sep-21,3.0985,3.14,9.60070225,9.8596
10:10:59,30-Sep-21,3.167,3.144,10.029889,9.884736
10:10:59,30-Sep-21,3.167,3.149,10.029889,9.916201
10:10:59,30-Sep-21,3.167,3.153,10.029889,9.941409
10:10:59,30-Sep-21,3.1915,3.157,10.18567225,9.966649
10:10:59,30-Sep-21,3.1915,3.162,10.18567225,9.998244
10:10:59,30-Sep-21,3.1915,3.166,10.18567225,10.023556
10:10:59,30-Sep-21,3.221,3.169,10.374841,10.042561
10:10:59,30-Sep-21,3.221,3.173,10.374841,10.067929
10:10:59,30-Sep-21,3.221,3.177,10.374841,10.093329
10:10:59,30-Sep-21,3.221,3.18,10.374841,10.1124
10:10:59,30-Sep-21,3.1915,3.184,10.18567225,10.137856
10:10:59,30-Sep-21,3.1915,3.187,10.18567225,10.156969
10:10:59,30-Sep-21,3.1915,3.19,10.18567225,10.1761
10:10:59,30-Sep-21,3.1865,3.193,10.15378225,10.195249
10:10:59,30-Sep-21,3.1865,3.195,10.15378225,10.208025
10:10:59,30-Sep-21,3.1625,3.198,10.00140625,10.227204
10:10:59,30-Sep-21,3.1625,3.2,10.00140625,10.24
10:10:59,30-Sep-21,3.1625,3.202,10.00140625,10.252804
10:10:59,30-Sep-21,3.172,3.204,10.061584,10.265616
10:10:59,30-Sep-21,3.172,3.206,10.061584,10.278436
10:10:59,30-Sep-21,3.177,3.208,10.093329,10.291264
10:10:59,30-Sep-21,3.177,3.209,10.093329,10.297681
10:10:59,30-Sep-21,3.2015,3.211,10.24960225,10.310521
10:10:59,30-Sep-21,3.2015,3.212,10.24960225,10.316944
10:10:59,30-Sep-21,3.226,3.213,10.407076,10.323369
10:10:59,30-Sep-21,3.226,3.214,10.407076,10.329796
10:10:59,30-Sep-21,3.2745,3.215,10.72235025,10.336225
10:10:59,30-Sep-21,3.2745,3.215,10.72235025,10.336225
10:10:59,30-Sep-21,3.2745,3.216,10.72235025,10.342656
10:10:59,30-Sep-21,3.2745,3.216,10.72235025,10.342656
10:10:59,30-Sep-21,3.2745,3.216,10.72235025,10.342656
10:10:59,30-Sep-21,3.27,3.216,10.6929,10.342656
10:10:59,30-Sep-21,3.255,3.216,10.595025,10.342656
10:11:00,30-Sep-21,3.255,3.216,10.595025,10.342656
10:11:00,30-Sep-21,3.255,3.216,10.595025,10.342656
10:11:00,30-Sep-21,3.255,3.216,10.595025,10.342656
10:11:00,30-Sep-21,3.2355,3.216,10.46846025,10.342656
10:11:00,30-Sep-21,3.2355,3.216,10.46846025,10.342656
10:11:00,30-Sep-21,3.1865,3.215,10.15378225,10.336225
10:11:00,30-Sep-21,3.172,3.215,10.061584,10.336225
10:11:00,30-Sep-21,3.172,3.215,10.061584,10.336225
10:11:00,30-Sep-21,3.172,3.215,10.061584,10.336225
10:11:00,30-Sep-21,3.1525,3.215,9.93825625,10.336225
10:11:00,30-Sep-21,3.138,3.215,9.847044,10.336225
10:11:00,30-Sep-21,3.138,3.215,9.847044,10.336225
10:11:00,30-Sep-21,3.138,3.216,9.847044,10.342656
10:11:00,30-Sep-21,3.1425,3.216,9.87530625,10.342656
10:11:00,30-Sep-21,3.1425,3.217,9.87530625,10.349089
10:11:00,30-Sep-21,3.2015,3.217,10.24960225,10.349089
10:11:00,30-Sep-21,3.2015,3.218,10.24960225,10.355524
10:11:00,30-Sep-21,3.2015,3.219,10.24960225,10.361961
10:11:00,30-Sep-21,3.226,3.22,10.407076,10.3684
10:11:00,30-Sep-21,3.226,3.221,10.407076,10.374841
10:11:00,30-Sep-21,3.226,3.222,10.407076,10.381284
10:11:00,30-Sep-21,3.25,3.223,10.5625,10.387729
10:11:00,30-Sep-21,3.25,3.224,10.5625,10.394176
10:11:00,30-Sep-21,3.25,3.226,10.5625,10.407076
10:11:00,30-Sep-21,3.26,3.227,10.6276,10.413529
10:11:00,30-Sep-21,3.26,3.229,10.6276,10.426441
10:11:00,30-Sep-21,3.26,3.23,10.6276,10.4329
10:11:00,30-Sep-21,3.25,3.232,10.5625,10.445824
10:11:00,30-Sep-21,3.25,3.234,10.5625,10.458756
10:11:00,30-Sep-21,3.25,3.235,10.5625,10.465225
10:11:00,30-Sep-21,3.255,3.237,10.595025,10.478169
10:11:00,30-Sep-21,3.255,3.239,10.595025,10.491121
10:11:00,30-Sep-21,3.255,3.241,10.595025,10.504081
10:11:00,30-Sep-21,3.255,3.242,10.595025,10.510564
10:11:00,30-Sep-21,3.255,3.244,10.595025,10.523536
10:11:00,30-Sep-21,3.255,3.246,10.595025,10.536516
10:11:00,30-Sep-21,3.226,3.248,10.407076,10.549504
10:11:00,30-Sep-21,3.226,3.249,10.407076,10.556001
10:11:00,30-Sep-21,3.226,3.251,10.407076,10.569001
10:11:00,30-Sep-21,3.226,3.253,10.407076,10.582009
10:11:00,30-Sep-21,3.226,3.254,10.407076,10.588516
10:11:00,30-Sep-21,3.2355,3.256,10.46846025,10.601536
10:11:00,30-Sep-21,3.2355,3.258,10.46846025,10.614564
10:11:00,30-Sep-21,3.299,3.259,10.883401,10.621081
10:11:00,30-Sep-21,3.299,3.261,10.883401,10.634121
10:11:00,30-Sep-21,3.299,3.262,10.883401,10.640644
10:11:00,30-Sep-21,3.304,3.264,10.916416,10.653696
10:11:00,30-Sep-21,3.299,3.265,10.883401,10.660225
10:11:00,30-Sep-21,3.2845,3.266,10.78794025,10.666756
10:11:00,30-Sep-21,3.2845,3.268,10.78794025,10.679824
10:11:00,30-Sep-21,3.2745,3.269,10.72235025,10.686361
10:11:00,30-Sep-21,3.2745,3.27,10.72235025,10.6929
10:11:00,30-Sep-21,3.2745,3.271,10.72235025,10.699441
10:11:00,30-Sep-21,3.216,3.272,10.342656,10.705984
10:11:00,30-Sep-21,3.216,3.273,10.342656,10.712529
10:11:00,30-Sep-21,3.2015,3.274,10.24960225,10.719076
10:11:00,30-Sep-21,3.2015,3.275,10.24960225,10.725625
10:11:00,30-Sep-21,3.221,3.276,10.374841,10.732176
10:11:00,30-Sep-21,3.221,3.277,10.374841,10.738729
10:11:00,30-Sep-21,3.221,3.278,10.374841,10.745284
10:11:00,30-Sep-21,3.294,3.278,10.850436,10.745284
10:11:00,30-Sep-21,3.3335,3.279,11.11222225,10.751841
10:11:00,30-Sep-21,3.3725,3.279,11.37375625,10.751841
10:11:00,30-Sep-21,3.3675,3.28,11.34005625,10.7584
10:11:00,30-Sep-21,3.3675,3.28,11.34005625,10.7584
10:11:00,30-Sep-21,3.353,3.281,11.242609,10.764961
10:11:00,30-Sep-21,3.353,3.281,11.242609,10.764961
10:11:00,30-Sep-21,3.314,3.281,10.982596,10.764961
10:11:00,30-Sep-21,3.314,3.282,10.982596,10.771524
10:11:00,30-Sep-21,3.2895,3.282,10.82081025,10.771524
10:11:00,30-Sep-21,3.2405,3.282,10.50084025,10.771524
10:11:00,30-Sep-21,3.2405,3.282,10.50084025,10.771524
10:11:00,30-Sep-21,3.226,3.282,10.407076,10.771524
10:11:00,30-Sep-21,3.226,3.283,10.407076,10.778089
10:11:00,30-Sep-21,3.226,3.283,10.407076,10.778089
10:11:00,30-Sep-21,3.2305,3.283,10.43613025,10.778089
10:11:00,30-Sep-21,3.2455,3.283,10.53327025,10.778089
10:11:00,30-Sep-21,3.2455,3.283,10.53327025,10.778089
10:11:00,30-Sep-21,3.314,3.283,10.982596,10.778089
10:11:00,30-Sep-21,3.3235,3.283,11.04565225,10.778089
10:11:00,30-Sep-21,3.3235,3.284,11.04565225,10.784656
10:11:00,30-Sep-21,3.3285,3.284,11.07891225,10.784656
10:11:00,30-Sep-21,3.3285,3.284,11.07891225,10.784656
10:11:00,30-Sep-21,3.3285,3.284,11.07891225,10.784656
10:11:00,30-Sep-21,3.314,3.285,10.982596,10.791225
10:11:00,30-Sep-21,3.304,3.285,10.916416,10.791225
10:11:00,30-Sep-21,3.304,3.286,10.916416,10.797796
10:11:00,30-Sep-21,3.304,3.286,10.916416,10.797796
10:11:00,30-Sep-21,3.26,3.287,10.6276,10.804369
10:11:00,30-Sep-21,3.26,3.287,10.6276,10.804369
10:11:00,30-Sep-21,3.2405,3.288,10.50084025,10.810944
10:11:00,30-Sep-21,3.2405,3.289,10.50084025,10.817521
10:11:00,30-Sep-21,3.216,3.289,10.342656,10.817521
10:11:00,30-Sep-21,3.216,3.29,10.342656,10.8241
10:11:00,30-Sep-21,3.216,3.291,10.342656,10.830681
10:11:00,30-Sep-21,3.216,3.292,10.342656,10.837264
10:11:00,30-Sep-21,3.216,3.293,10.342656,10.843849
10:11:00,30-Sep-21,3.265,3.294,10.660225,10.850436
10:11:00,30-Sep-21,3.299,3.295,10.883401,10.857025
10:11:00,30-Sep-21,3.299,3.296,10.883401,10.863616
10:11:00,30-Sep-21,3.3285,3.297,11.07891225,10.870209
10:11:00,30-Sep-21,3.358,3.298,11.276164,10.876804
10:11:00,30-Sep-21,3.358,3.299,11.276164,10.883401
10:11:00,30-Sep-21,3.358,3.3,11.276164,10.89
10:11:00,30-Sep-21,3.3675,3.301,11.34005625,10.896601
10:11:00,30-Sep-21,3.348,3.302,11.209104,10.903204
10:11:01,30-Sep-21,3.348,3.303,11.209104,10.909809
10:11:01,30-Sep-21,3.343,3.303,11.175649,10.909809
10:11:01,30-Sep-21,3.299,3.304,10.883401,10.916416
10:11:01,30-Sep-21,3.299,3.305,10.883401,10.923025
10:11:01,30-Sep-21,3.2845,3.305,10.78794025,10.923025
10:11:01,30-Sep-21,3.2845,3.305,10.78794025,10.923025
10:11:01,30-Sep-21,3.2795,3.306,10.75512025,10.929636
10:11:01,30-Sep-21,3.2795,3.306,10.75512025,10.929636
10:11:01,30-Sep-21,3.2845,3.306,10.78794025,10.929636
10:11:01,30-Sep-21,3.299,3.306,10.883401,10.929636
10:11:01,30-Sep-21,3.299,3.306,10.883401,10.929636
10:11:01,30-Sep-21,3.358,3.306,11.276164,10.929636
10:11:01,30-Sep-21,3.358,3.306,11.276164,10.929636
10:11:01,30-Sep-21,3.3625,3.306,11.30640625,10.929636
10:11:01,30-Sep-21,3.3625,3.306,11.30640625,10.929636
10:11:01,30-Sep-21,3.353,3.306,11.242609,10.929636
10:11:01,30-Sep-21,3.338,3.305,11.142244,10.923025
10:11:01,30-Sep-21,3.338,3.305,11.142244,10.923025
10:11:01,30-Sep-21,3.294,3.305,10.850436,10.923025
10:11:01,30-Sep-21,3.294,3.304,10.850436,10.916416
10:11:01,30-Sep-21,3.294,3.304,10.850436,10.916416
10:11:01,30-Sep-21,3.294,3.303,10.850436,10.909809
10:11:01,30-Sep-21,3.294,3.303,10.850436,10.909809
10:11:01,30-Sep-21,3.294,3.302,10.850436,10.903204
10:11:01,30-Sep-21,3.2745,3.302,10.72235025,10.903204
10:11:01,30-Sep-21,3.2745,3.302,10.72235025,10.903204
10:11:01,30-Sep-21,3.2745,3.301,10.72235025,10.896601
10:11:01,30-Sep-21,3.2455,3.301,10.53327025,10.896601
10:11:01,30-Sep-21,3.2455,3.301,10.53327025,10.896601
10:11:01,30-Sep-21,3.2455,3.301,10.53327025,10.896601
10:11:01,30-Sep-21,3.2455,3.3,10.53327025,10.89
10:11:01,30-Sep-21,3.2455,3.3,10.53327025,10.89
10:11:01,30-Sep-21,3.2455,3.3,10.53327025,10.89
10:11:01,30-Sep-21,3.25,3.3,10.5625,10.89
10:11:01,30-Sep-21,3.25,3.3,10.5625,10.89
10:11:01,30-Sep-21,3.25,3.3,10.5625,10.89
10:11:01,30-Sep-21,3.3185,3.3,11.01244225,10.89
10:11:01,30-Sep-21,3.3185,3.301,11.01244225,10.896601
10:11:01,30-Sep-21,3.3185,3.301,11.01244225,10.896601
10:11:01,30-Sep-21,3.3185,3.301,11.01244225,10.896601
10:11:01,30-Sep-21,3.343,3.301,11.175649,10.896601
10:11:01,30-Sep-21,3.343,3.301,11.175649,10.896601
10:11:01,30-Sep-21,3.3725,3.301,11.37375625,10.896601
10:11:01,30-Sep-21,3.3725,3.301,11.37375625,10.896601
10:11:01,30-Sep-21,3.3725,3.301,11.37375625,10.896601
10:11:01,30-Sep-21,3.3725,3.301,11.37375625,10.896601
10:11:01,30-Sep-21,3.3725,3.301,11.37375625,10.896601
10:11:01,30-Sep-21,3.338,3.301,11.142244,10.896601
10:11:01,30-Sep-21,3.338,3.301,11.142244,10.896601
10:11:01,30-Sep-21,3.338,3.301,11.142244,10.896601
10:11:01,30-Sep-21,3.3235,3.301,11.04565225,10.896601
10:11:01,30-Sep-21,3.3235,3.301,11.04565225,10.896601
10:11:01,30-Sep-21,3.2745,3.301,10.72235025,10.896601
10:11:01,30-Sep-21,3.2745,3.301,10.72235025,10.896601
10:11:01,30-Sep-21,3.2745,3.301,10.72235025,10.896601
10:11:01,30-Sep-21,3.265,3.301,10.660225,10.896601
10:11:01,30-Sep-21,3.265,3.301,10.660225,10.896601
10:11:01,30-Sep-21,3.265,3.301,10.660225,10.896601
10:11:01,30-Sep-21,3.265,3.301,10.660225,10.896601
10:11:01,30-Sep-21,3.265,3.301,10.660225,10.896601
10:11:01,30-Sep-21,3.265,3.301,10.660225,10.896601
10:11:01,30-Sep-21,3.255,3.302,10.595025,10.903204
10:11:01,30-Sep-21,3.255,3.302,10.595025,10.903204
10:11:01,30-Sep-21,3.255,3.302,10.595025,10.903204
10:11:01,30-Sep-21,3.27,3.303,10.6929,10.909809
10:11:01,30-Sep-21,3.27,3.303,10.6929,10.909809
10:11:01,30-Sep-21,3.27,3.304,10.6929,10.916416
10:11:01,30-Sep-21,3.294,3.305,10.850436,10.923025
10:11:01,30-Sep-21,3.294,3.305,10.850436,10.923025
10:11:01,30-Sep-21,3.358,3.306,11.276164,10.929636
10:11:01,30-Sep-21,3.358,3.307,11.276164,10.936249
10:11:01,30-Sep-21,3.358,3.308,11.276164,10.942864
10:11:01,30-Sep-21,3.3675,3.308,11.34005625,10.942864
10:11:01,30-Sep-21,3.3675,3.309,11.34005625,10.949481
10:11:01,30-Sep-21,3.3675,3.31,11.34005625,10.9561
10:11:01,30-Sep-21,3.353,3.311,11.242609,10.962721
10:11:01,30-Sep-21,3.353,3.312,11.242609,10.969344
10:11:01,30-Sep-21,3.353,3.313,11.242609,10.975969
10:11:01,30-Sep-21,3.309,3.314,10.949481,10.982596
10:11:01,30-Sep-21,3.294,3.316,10.850436,10.995856
10:11:01,30-Sep-21,3.294,3.317,10.850436,11.002489
10:11:01,30-Sep-21,3.26,3.318,10.6276,11.009124
10:11:01,30-Sep-21,3.26,3.319,10.6276,11.015761
10:11:01,30-Sep-21,3.26,3.32,10.6276,11.0224
10:11:01,30-Sep-21,3.26,3.321,10.6276,11.029041
10:11:01,30-Sep-21,3.265,3.323,10.660225,11.042329
10:11:01,30-Sep-21,3.265,3.324,10.660225,11.048976
10:11:01,30-Sep-21,3.3235,3.325,11.04565225,11.055625
10:11:01,30-Sep-21,3.353,3.326,11.242609,11.062276
10:11:01,30-Sep-21,3.353,3.328,11.242609,11.075584
10:11:01,30-Sep-21,3.382,3.329,11.437924,11.082241
10:11:01,30-Sep-21,3.382,3.33,11.437924,11.0889
10:11:01,30-Sep-21,3.382,3.331,11.437924,11.095561
10:11:01,30-Sep-21,3.382,3.332,11.437924,11.102224
10:11:01,30-Sep-21,3.348,3.334,11.209104,11.115556
10:11:01,30-Sep-21,3.348,3.335,11.209104,11.122225
10:11:01,30-Sep-21,3.348,3.336,11.209104,11.128896
10:11:01,30-Sep-21,3.304,3.337,10.916416,11.135569
10:11:01,30-Sep-21,3.294,3.338,10.850436,11.142244
10:11:01,30-Sep-21,3.294,3.339,10.850436,11.148921
10:11:01,30-Sep-21,3.294,3.34,10.850436,11.1556
10:11:01,30-Sep-21,3.294,3.341,10.850436,11.162281
10:11:01,30-Sep-21,3.299,3.342,10.883401,11.168964
10:11:01,30-Sep-21,3.3235,3.343,11.04565225,11.175649
10:11:01,30-Sep-21,3.3235,3.344,11.04565225,11.182336
10:11:01,30-Sep-21,3.397,3.344,11.539609,11.182336
10:11:01,30-Sep-21,3.397,3.345,11.539609,11.189025
10:11:01,30-Sep-21,3.4065,3.346,11.60424225,11.195716
10:11:01,30-Sep-21,3.4065,3.347,11.60424225,11.202409
10:11:01,30-Sep-21,3.402,3.347,11.573604,11.202409
10:11:01,30-Sep-21,3.402,3.348,11.573604,11.209104
10:11:01,30-Sep-21,3.402,3.348,11.573604,11.209104
10:11:01,30-Sep-21,3.397,3.349,11.539609,11.215801
10:11:01,30-Sep-21,3.397,3.349,11.539609,11.215801
10:11:01,30-Sep-21,3.348,3.35,11.209104,11.2225
10:11:01,30-Sep-21,3.348,3.35,11.209104,11.2225
10:11:01,30-Sep-21,3.3335,3.351,11.11222225,11.229201
10:11:01,30-Sep-21,3.3335,3.351,11.11222225,11.229201
10:11:01,30-Sep-21,3.3335,3.351,11.11222225,11.229201
10:11:02,30-Sep-21,3.3185,3.352,11.01244225,11.235904
10:11:02,30-Sep-21,3.3185,3.352,11.01244225,11.235904
10:11:02,30-Sep-21,3.3185,3.353,11.01244225,11.242609
10:11:02,30-Sep-21,3.294,3.353,10.850436,11.242609
10:11:02,30-Sep-21,3.294,3.354,10.850436,11.249316
10:11:02,30-Sep-21,3.294,3.355,10.850436,11.256025
10:11:02,30-Sep-21,3.299,3.355,10.883401,11.256025
10:11:02,30-Sep-21,3.299,3.356,10.883401,11.262736
10:11:02,30-Sep-21,3.299,3.357,10.883401,11.269449
10:11:02,30-Sep-21,3.353,3.357,11.242609,11.269449
10:11:02,30-Sep-21,3.353,3.358,11.242609,11.276164
10:11:02,30-Sep-21,3.353,3.359,11.242609,11.282881
10:11:02,30-Sep-21,3.353,3.359,11.242609,11.282881
10:11:02,30-Sep-21,3.353,3.36,11.242609,11.2896
10:11:02,30-Sep-21,3.353,3.361,11.242609,11.296321
10:11:02,30-Sep-21,3.382,3.362,11.437924,11.303044
10:11:02,30-Sep-21,3.382,3.362,11.437924,11.303044
10:11:02,30-Sep-21,3.382,3.363,11.437924,11.309769
10:11:02,30-Sep-21,3.4215,3.363,11.70666225,11.309769
10:11:02,30-Sep-21,3.4215,3.364,11.70666225,11.316496
10:11:02,30-Sep-21,3.426,3.364,11.737476,11.316496
10:11:02,30-Sep-21,3.426,3.365,11.737476,11.323225
10:11:02,30-Sep-21,3.402,3.365,11.573604,11.323225
10:11:02,30-Sep-21,3.402,3.365,11.573604,11.323225
10:11:02,30-Sep-21,3.392,3.366,11.505664,11.329956
10:11:02,30-Sep-21,3.392,3.366,11.505664,11.329956
10:11:02,30-Sep-21,3.392,3.366,11.505664,11.329956
10:11:02,30-Sep-21,3.392,3.366,11.505664,11.329956
10:11:02,30-Sep-21,3.3725,3.366,11.37375625,11.329956
10:11:02,30-Sep-21,3.3725,3.366,11.37375625,11.329956
10:11:02,30-Sep-21,3.3285,3.366,11.07891225,11.329956
10:11:02,30-Sep-21,3.3285,3.365,11.07891225,11.323225
10:11:02,30-Sep-21,3.3185,3.365,11.01244225,11.323225
10:11:02,30-Sep-21,3.3185,3.365,11.01244225,11.323225
10:11:02,30-Sep-21,3.3185,3.365,11.01244225,11.323225
10:11:02,30-Sep-21,3.3185,3.365,11.01244225,11.323225
10:11:02,30-Sep-21,3.3185,3.364,11.01244225,11.316496
10:11:02,30-Sep-21,3.3285,3.364,11.07891225,11.316496
10:11:02,30-Sep-21,3.3285,3.364,11.07891225,11.316496
10:11:02,30-Sep-21,3.3285,3.363,11.07891225,11.309769
10:11:02,30-Sep-21,3.397,3.363,11.539609,11.309769
10:11:02,30-Sep-21,3.397,3.363,11.539609,11.309769
10:11:02,30-Sep-21,3.397,3.363,11.539609,11.309769
10:11:02,30-Sep-21,3.4065,3.362,11.60424225,11.303044
10:11:02,30-Sep-21,3.4065,3.362,11.60424225,11.303044
10:11:02,30-Sep-21,3.4115,3.362,11.63833225,11.303044
10:11:02,30-Sep-21,3.4115,3.361,11.63833225,11.296321
10:11:02,30-Sep-21,3.402,3.361,11.573604,11.296321
10:11:02,30-Sep-21,3.402,3.361,11.573604,11.296321
10:11:02,30-Sep-21,3.387,3.361,11.471769,11.296321
10:11:02,30-Sep-21,3.387,3.361,11.471769,11.296321
10:11:02,30-Sep-21,3.387,3.361,11.471769,11.296321
10:11:02,30-Sep-21,3.343,3.361,11.175649,11.296321
10:11:02,30-Sep-21,3.343,3.361,11.175649,11.296321
10:11:02,30-Sep-21,3.3285,3.361,11.07891225,11.296321
10:11:02,30-Sep-21,3.3285,3.361,11.07891225,11.296321
10:11:02,30-Sep-21,3.3285,3.362,11.07891225,11.303044
10:11:02,30-Sep-21,3.299,3.362,10.883401,11.303044
10:11:02,30-Sep-21,3.299,3.363,10.883401,11.309769
10:11:02,30-Sep-21,3.299,3.363,10.883401,11.309769
10:11:02,30-Sep-21,3.299,3.364,10.883401,11.316496
10:11:02,30-Sep-21,3.299,3.364,10.883401,11.316496
10:11:02,30-Sep-21,3.348,3.365,11.209104,11.323225
10:11:02,30-Sep-21,3.348,3.366,11.209104,11.329956
10:11:02,30-Sep-21,3.348,3.367,11.209104,11.336689
10:11:02,30-Sep-21,3.348,3.368,11.209104,11.343424
10:11:02,30-Sep-21,3.348,3.369,11.209104,11.350161
10:11:02,30-Sep-21,3.3775,3.37,11.40750625,11.3569
10:11:02,30-Sep-21,3.3775,3.371,11.40750625,11.363641
10:11:02,30-Sep-21,3.3775,3.372,11.40750625,11.370384
10:11:02,30-Sep-21,3.4165,3.372,11.67247225,11.370384
10:11:02,30-Sep-21,3.4165,3.373,11.67247225,11.377129
10:11:02,30-Sep-21,3.4165,3.374,11.67247225,11.383876
10:11:02,30-Sep-21,3.4215,3.375,11.70666225,11.390625
10:11:02,30-Sep-21,3.4215,3.376,11.70666225,11.397376
10:11:02,30-Sep-21,3.4215,3.377,11.70666225,11.404129
10:11:02,30-Sep-21,3.4165,3.378,11.67247225,11.410884
10:11:02,30-Sep-21,3.4165,3.378,11.67247225,11.410884
10:11:02,30-Sep-21,3.4165,3.379,11.67247225,11.417641
10:11:02,30-Sep-21,3.4165,3.379,11.67247225,11.417641
10:11:02,30-Sep-21,3.4165,3.38,11.67247225,11.4244
10:11:02,30-Sep-21,3.4165,3.38,11.67247225,11.4244
10:11:02,30-Sep-21,3.382,3.381,11.437924,11.431161
10:11:02,30-Sep-21,3.382,3.381,11.437924,11.431161
10:11:02,30-Sep-21,3.3725,3.381,11.37375625,11.431161
10:11:02,30-Sep-21,3.3725,3.381,11.37375625,11.431161
10:11:02,30-Sep-21,3.3285,3.381,11.07891225,11.431161
10:11:02,30-Sep-21,3.3285,3.381,11.07891225,11.431161
10:11:02,30-Sep-21,3.3235,3.381,11.04565225,11.431161
10:11:02,30-Sep-21,3.3235,3.381,11.04565225,11.431161
10:11:02,30-Sep-21,3.3285,3.381,11.07891225,11.431161
10:11:02,30-Sep-21,3.3285,3.381,11.07891225,11.431161
10:11:02,30-Sep-21,3.343,3.381,11.175649,11.431161
10:11:02,30-Sep-21,3.343,3.38,11.175649,11.4244
10:11:02,30-Sep-21,3.4115,3.38,11.63833225,11.4244
10:11:02,30-Sep-21,3.426,3.38,11.737476,11.4244
10:11:02,30-Sep-21,3.426,3.379,11.737476,11.417641
10:11:02,30-Sep-21,3.431,3.379,11.771761,11.417641
10:11:02,30-Sep-21,3.4215,3.378,11.70666225,11.410884
10:11:02,30-Sep-21,3.4215,3.378,11.70666225,11.410884
10:11:02,30-Sep-21,3.4215,3.377,11.70666225,11.404129
10:11:02,30-Sep-21,3.402,3.376,11.573604,11.397376
10:11:02,30-Sep-21,3.358,3.375,11.276164,11.390625
10:11:02,30-Sep-21,3.338,3.375,11.142244,11.390625
10:11:02,30-Sep-21,3.338,3.374,11.142244,11.383876
10:11:02,30-Sep-21,3.309,3.373,10.949481,11.377129
10:11:02,30-Sep-21,3.309,3.372,10.949481,11.370384
10:11:02,30-Sep-21,3.304,3.371,10.916416,11.363641
10:11:02,30-Sep-21,3.304,3.37,10.916416,11.3569
10:11:02,30-Sep-21,3.338,3.368,11.142244,11.343424
10:11:02,30-Sep-21,3.338,3.367,11.142244,11.336689
10:11:02,30-Sep-21,3.3675,3.366,11.34005625,11.329956
10:11:02,30-Sep-21,3.392,3.364,11.505664,11.316496
10:11:02,30-Sep-21,3.4165,3.363,11.67247225,11.309769
10:11:02,30-Sep-21,3.4165,3.361,11.67247225,11.296321
10:11:02,30-Sep-21,3.4165,3.36,11.67247225,11.2896
10:11:02,30-Sep-21,3.4165,3.358,11.67247225,11.276164
10:11:02,30-Sep-21,3.4165,3.356,11.67247225,11.262736
10:11:02,30-Sep-21,3.387,3.354,11.471769,11.249316
10:11:02,30-Sep-21,3.387,3.352,11.471769,11.235904
10:11:02,30-Sep-21,3.3675,3.35,11.34005625,11.2225
10:11:02,30-Sep-21,3.3675,3.348,11.34005625,11.209104
10:11:02,30-Sep-21,3.3675,3.346,11.34005625,11.195716
10:11:02,30-Sep-21,3.3235,3.344,11.04565225,11.182336
10:11:02,30-Sep-21,3.3235,3.342,11.04565225,11.168964
10:11:02,30-Sep-21,3.3235,3.339,11.04565225,11.148921
10:11:02,30-Sep-21,3.3235,3.337,11.04565225,11.135569
10:11:02,30-Sep-21,3.3235,3.335,11.04565225,11.122225
10:11:02,30-Sep-21,3.309,3.333,10.949481,11.108889
10:11:02,30-Sep-21,3.309,3.33,10.949481,11.0889
10:11:02,30-Sep-21,3.309,3.328,10.949481,11.075584
10:11:02,30-Sep-21,3.299,3.326,10.883401,11.062276
10:11:02,30-Sep-21,3.299,3.324,10.883401,11.048976
10:11:03,30-Sep-21,3.299,3.322,10.883401,11.035684
10:11:03,30-Sep-21,3.309,3.32,10.949481,11.0224
10:11:03,30-Sep-21,3.309,3.318,10.949481,11.009124
10:11:03,30-Sep-21,3.3185,3.316,11.01244225,10.995856
10:11:03,30-Sep-21,3.3185,3.314,11.01244225,10.982596
10:11:03,30-Sep-21,3.3185,3.313,11.01244225,10.975969
10:11:03,30-Sep-21,3.3675,3.311,11.34005625,10.962721
10:11:03,30-Sep-21,3.3675,3.31,11.34005625,10.9561
10:11:03,30-Sep-21,3.3675,3.308,11.34005625,10.942864
10:11:03,30-Sep-21,3.353,3.307,11.242609,10.936249
10:11:03,30-Sep-21,3.338,3.306,11.142244,10.929636
10:11:03,30-Sep-21,3.338,3.305,11.142244,10.923025
10:11:03,30-Sep-21,3.338,3.305,11.142244,10.923025
10:11:03,30-Sep-21,3.2895,3.304,10.82081025,10.916416
10:11:03,30-Sep-21,3.2895,3.304,10.82081025,10.916416
10:11:03,30-Sep-21,3.2895,3.303,10.82081025,10.909809
10:11:03,30-Sep-21,3.2745,3.303,10.72235025,10.909809
10:11:03,30-Sep-21,3.2745,3.304,10.72235025,10.916416
10:11:03,30-Sep-21,3.2745,3.304,10.72235025,10.916416
10:11:03,30-Sep-21,3.2405,3.305,10.50084025,10.923025
10:11:03,30-Sep-21,3.2405,3.305,10.50084025,10.923025
10:11:03,30-Sep-21,3.2405,3.306,10.50084025,10.929636
10:11:03,30-Sep-21,3.2405,3.307,10.50084025,10.936249
10:11:03,30-Sep-21,3.2405,3.309,10.50084025,10.949481
10:11:03,30-Sep-21,3.2405,3.31,10.50084025,10.9561
10:11:03,30-Sep-21,3.2405,3.312,10.50084025,10.969344
10:11:03,30-Sep-21,3.2405,3.314,10.50084025,10.982596
10:11:03,30-Sep-21,3.26,3.316,10.6276,10.995856
10:11:03,30-Sep-21,3.3335,3.318,11.11222225,11.009124
10:11:03,30-Sep-21,3.3335,3.32,11.11222225,11.0224
10:11:03,30-Sep-21,3.3335,3.322,11.11222225,11.035684
10:11:03,30-Sep-21,3.3725,3.324,11.37375625,11.048976
10:11:03,30-Sep-21,3.3725,3.327,11.37375625,11.068929
10:11:03,30-Sep-21,3.3725,3.329,11.37375625,11.082241
10:11:03,30-Sep-21,3.4165,3.331,11.67247225,11.095561
10:11:03,30-Sep-21,3.426,3.334,11.737476,11.115556
10:11:03,30-Sep-21,3.426,3.336,11.737476,11.128896
10:11:03,30-Sep-21,3.4065,3.339,11.60424225,11.148921
10:11:03,30-Sep-21,3.4065,3.341,11.60424225,11.162281
10:11:03,30-Sep-21,3.4065,3.343,11.60424225,11.175649
10:11:03,30-Sep-21,3.4065,3.346,11.60424225,11.195716
10:11:03,30-Sep-21,3.397,3.348,11.539609,11.209104
10:11:03,30-Sep-21,3.358,3.35,11.276164,11.2225
10:11:03,30-Sep-21,3.358,3.352,11.276164,11.235904
10:11:03,30-Sep-21,3.3335,3.354,11.11222225,11.249316
10:11:03,30-Sep-21,3.3335,3.357,11.11222225,11.269449
10:11:03,30-Sep-21,3.3335,3.359,11.11222225,11.282881
10:11:03,30-Sep-21,3.314,3.361,10.982596,11.296321
10:11:03,30-Sep-21,3.314,3.363,10.982596,11.309769
10:11:03,30-Sep-21,3.309,3.365,10.949481,11.323225
10:11:03,30-Sep-21,3.309,3.367,10.949481,11.336689
10:11:03,30-Sep-21,3.309,3.369,10.949481,11.350161
10:11:03,30-Sep-21,3.3235,3.371,11.04565225,11.363641
10:11:03,30-Sep-21,3.3235,3.373,11.04565225,11.377129
10:11:03,30-Sep-21,3.387,3.375,11.471769,11.390625
10:11:03,30-Sep-21,3.387,3.377,11.471769,11.404129
10:11:03,30-Sep-21,3.4065,3.379,11.60424225,11.417641
10:11:03,30-Sep-21,3.4065,3.381,11.60424225,11.431161
10:11:03,30-Sep-21,3.4165,3.383,11.67247225,11.444689
10:11:03,30-Sep-21,3.4165,3.385,11.67247225,11.458225
10:11:03,30-Sep-21,3.4165,3.387,11.67247225,11.471769
10:11:03,30-Sep-21,3.4115,3.389,11.63833225,11.485321
10:11:03,30-Sep-21,3.4115,3.391,11.63833225,11.498881
10:11:03,30-Sep-21,3.4115,3.393,11.63833225,11.512449
10:11:03,30-Sep-21,3.3775,3.394,11.40750625,11.519236
10:11:03,30-Sep-21,3.3775,3.396,11.40750625,11.532816
10:11:03,30-Sep-21,3.3675,3.398,11.34005625,11.546404
10:11:03,30-Sep-21,3.3625,3.4,11.30640625,11.56
10:11:03,30-Sep-21,3.3625,3.402,11.30640625,11.573604
10:11:03,30-Sep-21,3.348,3.404,11.209104,11.587216
10:11:03,30-Sep-21,3.348,3.406,11.209104,11.600836
10:11:03,30-Sep-21,3.348,3.407,11.209104,11.607649
10:11:03,30-Sep-21,3.3625,3.409,11.30640625,11.621281
10:11:03,30-Sep-21,3.426,3.411,11.737476,11.634921
10:11:03,30-Sep-21,3.4655,3.412,12.00969025,11.641744
10:11:03,30-Sep-21,3.514,3.414,12.348196,11.655396
10:11:03,30-Sep-21,3.519,3.416,12.383361,11.669056
10:11:03,30-Sep-21,3.4895,3.417,12.17661025,11.675889
10:11:03,30-Sep-21,3.4895,3.419,12.17661025,11.689561
10:11:03,30-Sep-21,3.4655,3.42,12.00969025,11.6964
10:11:03,30-Sep-21,3.4655,3.422,12.00969025,11.710084
10:11:03,30-Sep-21,3.436,3.423,11.806096,11.716929
10:11:03,30-Sep-21,3.382,3.424,11.437924,11.723776
10:11:03,30-Sep-21,3.382,3.426,11.437924,11.737476
10:11:03,30-Sep-21,3.382,3.427,11.437924,11.744329
10:11:03,30-Sep-21,3.3625,3.428,11.30640625,11.751184
10:11:03,30-Sep-21,3.3625,3.429,11.30640625,11.758041
10:11:03,30-Sep-21,3.3725,3.431,11.37375625,11.771761
10:11:03,30-Sep-21,3.3725,3.432,11.37375625,11.778624
10:11:03,30-Sep-21,3.4455,3.433,11.87147025,11.785489
10:11:03,30-Sep-21,3.4555,3.434,11.94048025,11.792356
10:11:03,30-Sep-21,3.4555,3.435,11.94048025,11.799225
10:11:03,30-Sep-21,3.4605,3.436,11.97506025,11.806096
10:11:03,30-Sep-21,3.4605,3.437,11.97506025,11.812969
10:11:03,30-Sep-21,3.4555,3.438,11.94048025,11.819844
10:11:03,30-Sep-21,3.4555,3.438,11.94048025,11.819844
10:11:03,30-Sep-21,3.4115,3.439,11.63833225,11.826721
10:11:03,30-Sep-21,3.4115,3.44,11.63833225,11.8336
10:11:03,30-Sep-21,3.4065,3.44,11.60424225,11.8336
10:11:03,30-Sep-21,3.382,3.441,11.437924,11.840481
10:11:03,30-Sep-21,3.382,3.441,11.437924,11.840481
10:11:03,30-Sep-21,3.392,3.442,11.505664,11.847364
10:11:03,30-Sep-21,3.392,3.442,11.505664,11.847364
10:11:03,30-Sep-21,3.436,3.442,11.806096,11.847364
10:11:03,30-Sep-21,3.47,3.442,12.0409,11.847364
10:11:04,30-Sep-21,3.47,3.442,12.0409,11.847364
10:11:04,30-Sep-21,3.524,3.442,12.418576,11.847364
10:11:04,30-Sep-21,3.524,3.442,12.418576,11.847364
10:11:04,30-Sep-21,3.524,3.442,12.418576,11.847364
10:11:04,30-Sep-21,3.529,3.441,12.453841,11.840481
10:11:04,30-Sep-21,3.5045,3.441,12.28152025,11.840481
10:11:04,30-Sep-21,3.5045,3.44,12.28152025,11.8336
10:11:04,30-Sep-21,3.485,3.44,12.145225,11.8336
