Time,Date,EMG Value (V),Filtered Value (V),,
11:13:12,30-Sep-21,0.0195,0.019,0.00038025,0.000361
11:13:12,30-Sep-21,0.0195,0.019,0.00038025,0.000361
11:13:12,30-Sep-21,0.0195,0.019,0.00038025,0.000361
11:13:12,30-Sep-21,0.0195,0.019,0.00038025,0.000361
11:13:12,30-Sep-21,0.0195,0.019,0.00038025,0.000361
11:13:12,30-Sep-21,0.0195,0.019,0.00038025,0.000361
11:13:12,30-Sep-21,0.0195,0.019,0.00038025,0.000361
11:13:12,30-Sep-21,0.0195,0.019,0.00038025,0.000361
11:13:12,30-Sep-21,0.0195,0.019,0.00038025,0.000361
11:13:12,30-Sep-21,0.0195,0.018,0.00038025,0.000324
11:13:13,30-Sep-21,0.0195,0.018,0.00038025,0.000324
11:13:13,30-Sep-21,0.0195,0.018,0.00038025,0.000324
11:13:13,30-Sep-21,0.0195,0.018,0.00038025,0.000324
11:13:13,30-Sep-21,0.0195,0.018,0.00038025,0.000324
11:13:13,30-Sep-21,0.0195,0.017,0.00038025,0.000289
11:13:13,30-Sep-21,0.0195,0.017,0.00038025,0.000289
11:13:13,30-Sep-21,0.0195,0.017,0.00038025,0.000289
11:13:13,30-Sep-21,0.0145,0.017,0.00021025,0.000289
11:13:13,30-Sep-21,0.0145,0.017,0.00021025,0.000289
11:13:13,30-Sep-21,0.0145,0.016,0.00021025,0.000256
11:13:13,30-Sep-21,0.0145,0.016,0.00021025,0.000256
11:13:13,30-Sep-21,0.0145,0.016,0.00021025,0.000256
11:13:13,30-Sep-21,0.0145,0.016,0.00021025,0.000256
11:13:13,30-Sep-21,0.0145,0.016,0.00021025,0.000256
11:13:13,30-Sep-21,0.0145,0.015,0.00021025,0.000225
11:13:13,30-Sep-21,0.0145,0.015,0.00021025,0.000225
11:13:13,30-Sep-21,0.0145,0.015,0.00021025,0.000225
11:13:13,30-Sep-21,0.0145,0.015,0.00021025,0.000225
11:13:13,30-Sep-21,0.0145,0.015,0.00021025,0.000225
11:13:13,30-Sep-21,0.0145,0.014,0.00021025,0.000196
11:13:13,30-Sep-21,0.0145,0.014,0.00021025,0.000196
11:13:13,30-Sep-21,0.0145,0.014,0.00021025,0.000196
11:13:13,30-Sep-21,0.0145,0.014,0.00021025,0.000196
11:13:13,30-Sep-21,0.0145,0.014,0.00021025,0.000196
11:13:13,30-Sep-21,0.0145,0.014,0.00021025,0.000196
11:13:13,30-Sep-21,0.0145,0.014,0.00021025,0.000196
11:13:13,30-Sep-21,0.0145,0.014,0.00021025,0.000196
11:13:13,30-Sep-21,0.0145,0.013,0.00021025,0.000169
11:13:13,30-Sep-21,0.0145,0.013,0.00021025,0.000169
11:13:13,30-Sep-21,0.0145,0.013,0.00021025,0.000169
11:13:13,30-Sep-21,0.0145,0.013,0.00021025,0.000169
11:13:13,30-Sep-21,0.0145,0.013,0.00021025,0.000169
11:13:13,30-Sep-21,0.01,0.013,0.0001,0.000169
11:13:13,30-Sep-21,0.01,0.013,0.0001,0.000169
11:13:13,30-Sep-21,0.01,0.013,0.0001,0.000169
11:13:13,30-Sep-21,0.01,0.013,0.0001,0.000169
11:13:13,30-Sep-21,0.01,0.013,0.0001,0.000169
11:13:13,30-Sep-21,0.01,0.013,0.0001,0.000169
11:13:13,30-Sep-21,0.01,0.013,0.0001,0.000169
11:13:13,30-Sep-21,0.01,0.013,0.0001,0.000169
11:13:13,30-Sep-21,0.0145,0.013,0.00021025,0.000169
11:13:13,30-Sep-21,0.0145,0.013,0.00021025,0.000169
11:13:13,30-Sep-21,0.0145,0.014,0.00021025,0.000196
11:13:13,30-Sep-21,0.0145,0.014,0.00021025,0.000196
11:13:13,30-Sep-21,0.0145,0.014,0.00021025,0.000196
11:13:13,30-Sep-21,0.0145,0.014,0.00021025,0.000196
11:13:13,30-Sep-21,0.0145,0.014,0.00021025,0.000196
11:13:13,30-Sep-21,0.0145,0.014,0.00021025,0.000196
11:13:13,30-Sep-21,0.0145,0.014,0.00021025,0.000196
11:13:13,30-Sep-21,0.0145,0.014,0.00021025,0.000196
11:13:13,30-Sep-21,0.0145,0.014,0.00021025,0.000196
11:13:13,30-Sep-21,0.0145,0.014,0.00021025,0.000196
11:13:13,30-Sep-21,0.0145,0.014,0.00021025,0.000196
11:13:13,30-Sep-21,0.0145,0.014,0.00021025,0.000196
11:13:13,30-Sep-21,0.0145,0.014,0.00021025,0.000196
11:13:13,30-Sep-21,0.0145,0.014,0.00021025,0.000196
11:13:13,30-Sep-21,0.0145,0.014,0.00021025,0.000196
11:13:13,30-Sep-21,0.0195,0.014,0.00038025,0.000196
11:13:13,30-Sep-21,0.0195,0.014,0.00038025,0.000196
11:13:13,30-Sep-21,0.0195,0.014,0.00038025,0.000196
11:13:13,30-Sep-21,0.0145,0.014,0.00021025,0.000196
11:13:13,30-Sep-21,0.0145,0.014,0.00021025,0.000196
11:13:13,30-Sep-21,0.0145,0.014,0.00021025,0.000196
11:13:13,30-Sep-21,0.0145,0.014,0.00021025,0.000196
11:13:13,30-Sep-21,0.0145,0.014,0.00021025,0.000196
11:13:13,30-Sep-21,0.0145,0.014,0.00021025,0.000196
11:13:13,30-Sep-21,0.0145,0.014,0.00021025,0.000196
11:13:13,30-Sep-21,0.0145,0.013,0.00021025,0.000169
11:13:13,30-Sep-21,0.0145,0.013,0.00021025,0.000169
11:13:13,30-Sep-21,0.0145,0.013,0.00021025,0.000169
11:13:13,30-Sep-21,0.0145,0.013,0.00021025,0.000169
11:13:13,30-Sep-21,0.01,0.013,0.0001,0.000169
11:13:13,30-Sep-21,0.01,0.013,0.0001,0.000169
11:13:13,30-Sep-21,0.01,0.013,0.0001,0.000169
11:13:13,30-Sep-21,0.01,0.013,0.0001,0.000169
11:13:13,30-Sep-21,0.01,0.013,0.0001,0.000169
11:13:13,30-Sep-21,0.01,0.013,0.0001,0.000169
11:13:13,30-Sep-21,0.01,0.013,0.0001,0.000169
11:13:13,30-Sep-21,0.01,0.013,0.0001,0.000169
11:13:13,30-Sep-21,0.01,0.013,0.0001,0.000169
11:13:13,30-Sep-21,0.01,0.013,0.0001,0.000169
11:13:13,30-Sep-21,0.01,0.013,0.0001,0.000169
11:13:13,30-Sep-21,0.01,0.013,0.0001,0.000169
11:13:13,30-Sep-21,0.01,0.013,0.0001,0.000169
11:13:13,30-Sep-21,0.01,0.013,0.0001,0.000169
11:13:13,30-Sep-21,0.0145,0.013,0.00021025,0.000169
11:13:13,30-Sep-21,0.0145,0.013,0.00021025,0.000169
11:13:13,30-Sep-21,0.0145,0.013,0.00021025,0.000169
11:13:13,30-Sep-21,0.0145,0.013,0.00021025,0.000169
11:13:13,30-Sep-21,0.0145,0.013,0.00021025,0.000169
11:13:13,30-Sep-21,0.0145,0.013,0.00021025,0.000169
11:13:13,30-Sep-21,0.0145,0.013,0.00021025,0.000169
11:13:13,30-Sep-21,0.0145,0.013,0.00021025,0.000169
11:13:13,30-Sep-21,0.0145,0.013,0.00021025,0.000169
11:13:13,30-Sep-21,0.0145,0.013,0.00021025,0.000169
11:13:13,30-Sep-21,0.0145,0.013,0.00021025,0.000169
11:13:13,30-Sep-21,0.0145,0.014,0.00021025,0.000196
11:13:13,30-Sep-21,0.0145,0.014,0.00021025,0.000196
11:13:13,30-Sep-21,0.0145,0.014,0.00021025,0.000196
11:13:13,30-Sep-21,0.0145,0.014,0.00021025,0.000196
11:13:13,30-Sep-21,0.0145,0.014,0.00021025,0.000196
11:13:13,30-Sep-21,0.0145,0.014,0.00021025,0.000196
11:13:13,30-Sep-21,0.0145,0.014,0.00021025,0.000196
11:13:13,30-Sep-21,0.0145,0.014,0.00021025,0.000196
11:13:13,30-Sep-21,0.0145,0.014,0.00021025,0.000196
11:13:13,30-Sep-21,0.0145,0.014,0.00021025,0.000196
11:13:13,30-Sep-21,0.0145,0.014,0.00021025,0.000196
11:13:13,30-Sep-21,0.0145,0.014,0.00021025,0.000196
11:13:13,30-Sep-21,0.0145,0.015,0.00021025,0.000225
11:13:13,30-Sep-21,0.0145,0.015,0.00021025,0.000225
11:13:13,30-Sep-21,0.0145,0.015,0.00021025,0.000225
11:13:13,30-Sep-21,0.0145,0.015,0.00021025,0.000225
11:13:13,30-Sep-21,0.0145,0.015,0.00021025,0.000225
11:13:13,30-Sep-21,0.0145,0.015,0.00021025,0.000225
11:13:13,30-Sep-21,0.0145,0.015,0.00021025,0.000225
11:13:13,30-Sep-21,0.0145,0.015,0.00021025,0.000225
11:13:13,30-Sep-21,0.0145,0.015,0.00021025,0.000225
11:13:13,30-Sep-21,0.0145,0.015,0.00021025,0.000225
11:13:13,30-Sep-21,0.0145,0.015,0.00021025,0.000225
11:13:13,30-Sep-21,0.0145,0.015,0.00021025,0.000225
11:13:13,30-Sep-21,0.0145,0.015,0.00021025,0.000225
11:13:13,30-Sep-21,0.0145,0.015,0.00021025,0.000225
11:13:13,30-Sep-21,0.0145,0.015,0.00021025,0.000225
11:13:13,30-Sep-21,0.0145,0.015,0.00021025,0.000225
11:13:13,30-Sep-21,0.0145,0.015,0.00021025,0.000225
11:13:13,30-Sep-21,0.0145,0.015,0.00021025,0.000225
11:13:13,30-Sep-21,0.0145,0.015,0.00021025,0.000225
11:13:13,30-Sep-21,0.0145,0.015,0.00021025,0.000225
11:13:13,30-Sep-21,0.0145,0.015,0.00021025,0.000225
11:13:13,30-Sep-21,0.0145,0.015,0.00021025,0.000225
11:13:13,30-Sep-21,0.0145,0.015,0.00021025,0.000225
11:13:13,30-Sep-21,0.0145,0.015,0.00021025,0.000225
11:13:13,30-Sep-21,0.0145,0.015,0.00021025,0.000225
11:13:13,30-Sep-21,0.0145,0.015,0.00021025,0.000225
11:13:13,30-Sep-21,0.0145,0.015,0.00021025,0.000225
11:13:13,30-Sep-21,0.0145,0.015,0.00021025,0.000225
11:13:13,30-Sep-21,0.0145,0.015,0.00021025,0.000225
11:13:13,30-Sep-21,0.0145,0.014,0.00021025,0.000196
11:13:13,30-Sep-21,0.0145,0.014,0.00021025,0.000196
11:13:13,30-Sep-21,0.0145,0.014,0.00021025,0.000196
11:13:13,30-Sep-21,0.0145,0.014,0.00021025,0.000196
11:13:13,30-Sep-21,0.0145,0.014,0.00021025,0.000196
11:13:13,30-Sep-21,0.0145,0.014,0.00021025,0.000196
11:13:13,30-Sep-21,0.0145,0.014,0.00021025,0.000196
11:13:13,30-Sep-21,0.0145,0.014,0.00021025,0.000196
11:13:13,30-Sep-21,0.0145,0.014,0.00021025,0.000196
11:13:13,30-Sep-21,0.0145,0.014,0.00021025,0.000196
11:13:13,30-Sep-21,0.0145,0.013,0.00021025,0.000169
11:13:13,30-Sep-21,0.0145,0.013,0.00021025,0.000169
11:13:13,30-Sep-21,0.0145,0.013,0.00021025,0.000169
11:13:13,30-Sep-21,0.0145,0.013,0.00021025,0.000169
11:13:13,30-Sep-21,0.0145,0.013,0.00021025,0.000169
11:13:13,30-Sep-21,0.0145,0.013,0.00021025,0.000169
11:13:13,30-Sep-21,0.0145,0.013,0.00021025,0.000169
11:13:13,30-Sep-21,0.0145,0.012,0.00021025,0.000144
11:13:13,30-Sep-21,0.01,0.012,0.0001,0.000144
11:13:13,30-Sep-21,0.01,0.012,0.0001,0.000144
11:13:13,30-Sep-21,0.01,0.012,0.0001,0.000144
11:13:13,30-Sep-21,0.01,0.012,0.0001,0.000144
11:13:13,30-Sep-21,0.0145,0.012,0.00021025,0.000144
11:13:13,30-Sep-21,0.0145,0.012,0.00021025,0.000144
11:13:13,30-Sep-21,0.0145,0.012,0.00021025,0.000144
11:13:13,30-Sep-21,0.01,0.012,0.0001,0.000144
11:13:13,30-Sep-21,0.01,0.012,0.0001,0.000144
11:13:13,30-Sep-21,0.01,0.011,0.0001,0.000121
11:13:13,30-Sep-21,0.01,0.011,0.0001,0.000121
11:13:13,30-Sep-21,0.01,0.011,0.0001,0.000121
11:13:13,30-Sep-21,0.01,0.011,0.0001,0.000121
11:13:13,30-Sep-21,0.01,0.011,0.0001,0.000121
11:13:13,30-Sep-21,0.01,0.011,0.0001,0.000121
11:13:13,30-Sep-21,0.01,0.011,0.0001,0.000121
11:13:13,30-Sep-21,0.01,0.011,0.0001,0.000121
11:13:13,30-Sep-21,0.01,0.011,0.0001,0.000121
11:13:13,30-Sep-21,0.01,0.012,0.0001,0.000144
11:13:13,30-Sep-21,0.01,0.012,0.0001,0.000144
11:13:13,30-Sep-21,0.01,0.012,0.0001,0.000144
11:13:13,30-Sep-21,0.01,0.012,0.0001,0.000144
11:13:14,30-Sep-21,0.01,0.012,0.0001,0.000144
11:13:14,30-Sep-21,0.01,0.012,0.0001,0.000144
11:13:14,30-Sep-21,0.01,0.012,0.0001,0.000144
11:13:14,30-Sep-21,0.0145,0.012,0.00021025,0.000144
11:13:14,30-Sep-21,0.0145,0.012,0.00021025,0.000144
11:13:14,30-Sep-21,0.0145,0.013,0.00021025,0.000169
11:13:14,30-Sep-21,0.0145,0.013,0.00021025,0.000169
11:13:14,30-Sep-21,0.0145,0.013,0.00021025,0.000169
11:13:14,30-Sep-21,0.0145,0.013,0.00021025,0.000169
11:13:14,30-Sep-21,0.0145,0.013,0.00021025,0.000169
11:13:14,30-Sep-21,0.0145,0.013,0.00021025,0.000169
11:13:14,30-Sep-21,0.0145,0.013,0.00021025,0.000169
11:13:14,30-Sep-21,0.0145,0.014,0.00021025,0.000196
11:13:14,30-Sep-21,0.0145,0.014,0.00021025,0.000196
11:13:14,30-Sep-21,0.0145,0.014,0.00021025,0.000196
11:13:14,30-Sep-21,0.0145,0.014,0.00021025,0.000196
11:13:14,30-Sep-21,0.0145,0.014,0.00021025,0.000196
11:13:14,30-Sep-21,0.0145,0.014,0.00021025,0.000196
11:13:14,30-Sep-21,0.0145,0.014,0.00021025,0.000196
11:13:14,30-Sep-21,0.0145,0.014,0.00021025,0.000196
11:13:14,30-Sep-21,0.0145,0.014,0.00021025,0.000196
11:13:14,30-Sep-21,0.0145,0.014,0.00021025,0.000196
11:13:14,30-Sep-21,0.0145,0.015,0.00021025,0.000225
11:13:14,30-Sep-21,0.0145,0.015,0.00021025,0.000225
11:13:14,30-Sep-21,0.0145,0.015,0.00021025,0.000225
11:13:14,30-Sep-21,0.0145,0.015,0.00021025,0.000225
11:13:14,30-Sep-21,0.0145,0.015,0.00021025,0.000225
11:13:14,30-Sep-21,0.0145,0.015,0.00021025,0.000225
11:13:14,30-Sep-21,0.0145,0.015,0.00021025,0.000225
11:13:14,30-Sep-21,0.0145,0.015,0.00021025,0.000225
11:13:14,30-Sep-21,0.0145,0.015,0.00021025,0.000225
11:13:14,30-Sep-21,0.0145,0.015,0.00021025,0.000225
11:13:14,30-Sep-21,0.0145,0.015,0.00021025,0.000225
11:13:14,30-Sep-21,0.0145,0.014,0.00021025,0.000196
11:13:14,30-Sep-21,0.0145,0.014,0.00021025,0.000196
11:13:14,30-Sep-21,0.0145,0.014,0.00021025,0.000196
11:13:14,30-Sep-21,0.0145,0.014,0.00021025,0.000196
11:13:14,30-Sep-21,0.0145,0.014,0.00021025,0.000196
11:13:14,30-Sep-21,0.0145,0.014,0.00021025,0.000196
11:13:14,30-Sep-21,0.0145,0.014,0.00021025,0.000196
11:13:14,30-Sep-21,0.0145,0.014,0.00021025,0.000196
11:13:14,30-Sep-21,0.0145,0.014,0.00021025,0.000196
11:13:14,30-Sep-21,0.0145,0.014,0.00021025,0.000196
11:13:14,30-Sep-21,0.0145,0.014,0.00021025,0.000196
11:13:14,30-Sep-21,0.0145,0.014,0.00021025,0.000196
11:13:14,30-Sep-21,0.01,0.014,0.0001,0.000196
11:13:14,30-Sep-21,0.01,0.014,0.0001,0.000196
11:13:14,30-Sep-21,0.01,0.014,0.0001,0.000196
11:13:14,30-Sep-21,0.0145,0.013,0.00021025,0.000169
11:13:14,30-Sep-21,0.0145,0.013,0.00021025,0.000169
11:13:14,30-Sep-21,0.0145,0.013,0.00021025,0.000169
11:13:14,30-Sep-21,0.0145,0.013,0.00021025,0.000169
11:13:14,30-Sep-21,0.0145,0.013,0.00021025,0.000169
11:13:14,30-Sep-21,0.0145,0.013,0.00021025,0.000169
11:13:14,30-Sep-21,0.01,0.013,0.0001,0.000169
11:13:14,30-Sep-21,0.01,0.013,0.0001,0.000169
11:13:14,30-Sep-21,0.0145,0.013,0.00021025,0.000169
11:13:14,30-Sep-21,0.0145,0.013,0.00021025,0.000169
11:13:14,30-Sep-21,0.0145,0.013,0.00021025,0.000169
11:13:14,30-Sep-21,0.0145,0.013,0.00021025,0.000169
11:13:14,30-Sep-21,0.0145,0.013,0.00021025,0.000169
11:13:14,30-Sep-21,0.0145,0.013,0.00021025,0.000169
11:13:14,30-Sep-21,0.0145,0.013,0.00021025,0.000169
11:13:14,30-Sep-21,0.01,0.013,0.0001,0.000169
11:13:14,30-Sep-21,0.01,0.013,0.0001,0.000169
11:13:14,30-Sep-21,0.01,0.013,0.0001,0.000169
11:13:14,30-Sep-21,0.01,0.013,0.0001,0.000169
11:13:14,30-Sep-21,0.0145,0.013,0.00021025,0.000169
11:13:14,30-Sep-21,0.0145,0.013,0.00021025,0.000169
11:13:14,30-Sep-21,0.0145,0.013,0.00021025,0.000169
11:13:14,30-Sep-21,0.01,0.013,0.0001,0.000169
11:13:14,30-Sep-21,0.01,0.013,0.0001,0.000169
11:13:14,30-Sep-21,0.0145,0.013,0.00021025,0.000169
11:13:14,30-Sep-21,0.0145,0.013,0.00021025,0.000169
11:13:14,30-Sep-21,0.0145,0.013,0.00021025,0.000169
11:13:14,30-Sep-21,0.0145,0.013,0.00021025,0.000169
11:13:14,30-Sep-21,0.0145,0.013,0.00021025,0.000169
11:13:14,30-Sep-21,0.01,0.013,0.0001,0.000169
11:13:14,30-Sep-21,0.01,0.014,0.0001,0.000196
11:13:14,30-Sep-21,0.0145,0.014,0.00021025,0.000196
11:13:14,30-Sep-21,0.0145,0.014,0.00021025,0.000196
11:13:14,30-Sep-21,0.0145,0.014,0.00021025,0.000196
11:13:14,30-Sep-21,0.0145,0.014,0.00021025,0.000196
11:13:14,30-Sep-21,0.0145,0.014,0.00021025,0.000196
11:13:14,30-Sep-21,0.0145,0.014,0.00021025,0.000196
11:13:14,30-Sep-21,0.0145,0.014,0.00021025,0.000196
11:13:14,30-Sep-21,0.0145,0.014,0.00021025,0.000196
11:13:14,30-Sep-21,0.0145,0.014,0.00021025,0.000196
11:13:14,30-Sep-21,0.0145,0.014,0.00021025,0.000196
11:13:14,30-Sep-21,0.0145,0.014,0.00021025,0.000196
11:13:14,30-Sep-21,0.0145,0.014,0.00021025,0.000196
11:13:14,30-Sep-21,0.0145,0.014,0.00021025,0.000196
11:13:14,30-Sep-21,0.0145,0.014,0.00021025,0.000196
11:13:14,30-Sep-21,0.0145,0.014,0.00021025,0.000196
11:13:14,30-Sep-21,0.0145,0.014,0.00021025,0.000196
11:13:14,30-Sep-21,0.0145,0.014,0.00021025,0.000196
11:13:14,30-Sep-21,0.0145,0.014,0.00021025,0.000196
11:13:14,30-Sep-21,0.0145,0.014,0.00021025,0.000196
11:13:14,30-Sep-21,0.0145,0.014,0.00021025,0.000196
11:13:14,30-Sep-21,0.0145,0.014,0.00021025,0.000196
11:13:14,30-Sep-21,0.0145,0.014,0.00021025,0.000196
11:13:14,30-Sep-21,0.0145,0.014,0.00021025,0.000196
11:13:14,30-Sep-21,0.0145,0.014,0.00021025,0.000196
11:13:14,30-Sep-21,0.0145,0.014,0.00021025,0.000196
11:13:14,30-Sep-21,0.0145,0.014,0.00021025,0.000196
11:13:14,30-Sep-21,0.0145,0.014,0.00021025,0.000196
11:13:14,30-Sep-21,0.0145,0.014,0.00021025,0.000196
11:13:14,30-Sep-21,0.0145,0.014,0.00021025,0.000196
11:13:14,30-Sep-21,0.0145,0.014,0.00021025,0.000196
11:13:14,30-Sep-21,0.01,0.014,0.0001,0.000196
11:13:14,30-Sep-21,0.01,0.014,0.0001,0.000196
11:13:14,30-Sep-21,0.01,0.014,0.0001,0.000196
11:13:14,30-Sep-21,0.0145,0.014,0.00021025,0.000196
11:13:14,30-Sep-21,0.0145,0.014,0.00021025,0.000196
11:13:14,30-Sep-21,0.0145,0.014,0.00021025,0.000196
11:13:14,30-Sep-21,0.0145,0.014,0.00021025,0.000196
11:13:14,30-Sep-21,0.0145,0.014,0.00021025,0.000196
11:13:14,30-Sep-21,0.0145,0.014,0.00021025,0.000196
11:13:14,30-Sep-21,0.0145,0.014,0.00021025,0.000196
11:13:14,30-Sep-21,0.0145,0.014,0.00021025,0.000196
11:13:14,30-Sep-21,0.0145,0.014,0.00021025,0.000196
11:13:14,30-Sep-21,0.0145,0.014,0.00021025,0.000196
11:13:14,30-Sep-21,0.0145,0.014,0.00021025,0.000196
11:13:14,30-Sep-21,0.0145,0.014,0.00021025,0.000196
11:13:14,30-Sep-21,0.0145,0.014,0.00021025,0.000196
11:13:14,30-Sep-21,0.0145,0.014,0.00021025,0.000196
11:13:14,30-Sep-21,0.0145,0.014,0.00021025,0.000196
11:13:14,30-Sep-21,0.0145,0.014,0.00021025,0.000196
11:13:14,30-Sep-21,0.0145,0.014,0.00021025,0.000196
11:13:14,30-Sep-21,0.0145,0.014,0.00021025,0.000196
11:13:14,30-Sep-21,0.0145,0.014,0.00021025,0.000196
11:13:14,30-Sep-21,0.0145,0.014,0.00021025,0.000196
11:13:14,30-Sep-21,0.0145,0.014,0.00021025,0.000196
11:13:14,30-Sep-21,0.0145,0.014,0.00021025,0.000196
11:13:14,30-Sep-21,0.0145,0.014,0.00021025,0.000196
11:13:14,30-Sep-21,0.0145,0.014,0.00021025,0.000196
11:13:14,30-Sep-21,0.0145,0.014,0.00021025,0.000196
11:13:14,30-Sep-21,0.0145,0.014,0.00021025,0.000196
11:13:14,30-Sep-21,0.0145,0.014,0.00021025,0.000196
11:13:14,30-Sep-21,0.0145,0.014,0.00021025,0.000196
11:13:14,30-Sep-21,0.0145,0.015,0.00021025,0.000225
11:13:14,30-Sep-21,0.0145,0.015,0.00021025,0.000225
11:13:14,30-Sep-21,0.0145,0.015,0.00021025,0.000225
11:13:14,30-Sep-21,0.0145,0.015,0.00021025,0.000225
11:13:14,30-Sep-21,0.0145,0.015,0.00021025,0.000225
11:13:14,30-Sep-21,0.0145,0.015,0.00021025,0.000225
11:13:14,30-Sep-21,0.0145,0.015,0.00021025,0.000225
11:13:14,30-Sep-21,0.0145,0.015,0.00021025,0.000225
11:13:14,30-Sep-21,0.0145,0.015,0.00021025,0.000225
11:13:14,30-Sep-21,0.0145,0.016,0.00021025,0.000256
11:13:14,30-Sep-21,0.0145,0.016,0.00021025,0.000256
11:13:14,30-Sep-21,0.0145,0.016,0.00021025,0.000256
11:13:14,30-Sep-21,0.0145,0.016,0.00021025,0.000256
11:13:14,30-Sep-21,0.0145,0.016,0.00021025,0.000256
11:13:14,30-Sep-21,0.0145,0.016,0.00021025,0.000256
11:13:14,30-Sep-21,0.0145,0.016,0.00021025,0.000256
11:13:14,30-Sep-21,0.0145,0.017,0.00021025,0.000289
11:13:14,30-Sep-21,0.0145,0.017,0.00021025,0.000289
11:13:14,30-Sep-21,0.0145,0.017,0.00021025,0.000289
11:13:15,30-Sep-21,0.0145,0.017,0.00021025,0.000289
11:13:15,30-Sep-21,0.0195,0.017,0.00038025,0.000289
11:13:15,30-Sep-21,0.0195,0.017,0.00038025,0.000289
11:13:15,30-Sep-21,0.0195,0.017,0.00038025,0.000289
11:13:15,30-Sep-21,0.0195,0.018,0.00038025,0.000324
11:13:15,30-Sep-21,0.0195,0.018,0.00038025,0.000324
11:13:15,30-Sep-21,0.0195,0.018,0.00038025,0.000324
11:13:15,30-Sep-21,0.0195,0.018,0.00038025,0.000324
11:13:15,30-Sep-21,0.0195,0.018,0.00038025,0.000324
11:13:15,30-Sep-21,0.0195,0.018,0.00038025,0.000324
11:13:15,30-Sep-21,0.0195,0.018,0.00038025,0.000324
11:13:15,30-Sep-21,0.0195,0.018,0.00038025,0.000324
11:13:15,30-Sep-21,0.0195,0.018,0.00038025,0.000324
11:13:15,30-Sep-21,0.0195,0.018,0.00038025,0.000324
11:13:15,30-Sep-21,0.0195,0.018,0.00038025,0.000324
11:13:15,30-Sep-21,0.0195,0.018,0.00038025,0.000324
11:13:15,30-Sep-21,0.0195,0.018,0.00038025,0.000324
11:13:15,30-Sep-21,0.0195,0.018,0.00038025,0.000324
11:13:15,30-Sep-21,0.0195,0.018,0.00038025,0.000324
11:13:15,30-Sep-21,0.0195,0.018,0.00038025,0.000324
11:13:15,30-Sep-21,0.0195,0.018,0.00038025,0.000324
11:13:15,30-Sep-21,0.0195,0.017,0.00038025,0.000289
11:13:15,30-Sep-21,0.0195,0.017,0.00038025,0.000289
11:13:15,30-Sep-21,0.0145,0.017,0.00021025,0.000289
11:13:15,30-Sep-21,0.0145,0.017,0.00021025,0.000289
11:13:15,30-Sep-21,0.0145,0.017,0.00021025,0.000289
11:13:15,30-Sep-21,0.0145,0.017,0.00021025,0.000289
11:13:15,30-Sep-21,0.0145,0.017,0.00021025,0.000289
11:13:15,30-Sep-21,0.0145,0.017,0.00021025,0.000289
11:13:15,30-Sep-21,0.0145,0.017,0.00021025,0.000289
11:13:15,30-Sep-21,0.0145,0.017,0.00021025,0.000289
11:13:15,30-Sep-21,0.0145,0.016,0.00021025,0.000256
11:13:15,30-Sep-21,0.0145,0.016,0.00021025,0.000256
11:13:15,30-Sep-21,0.0145,0.016,0.00021025,0.000256
11:13:15,30-Sep-21,0.0145,0.016,0.00021025,0.000256
11:13:15,30-Sep-21,0.0145,0.016,0.00021025,0.000256
11:13:15,30-Sep-21,0.0145,0.016,0.00021025,0.000256
11:13:15,30-Sep-21,0.0145,0.016,0.00021025,0.000256
11:13:15,30-Sep-21,0.0145,0.016,0.00021025,0.000256
11:13:15,30-Sep-21,0.0145,0.016,0.00021025,0.000256
11:13:15,30-Sep-21,0.0145,0.016,0.00021025,0.000256
11:13:15,30-Sep-21,0.0145,0.016,0.00021025,0.000256
11:13:15,30-Sep-21,0.0145,0.016,0.00021025,0.000256
11:13:15,30-Sep-21,0.0145,0.016,0.00021025,0.000256
11:13:15,30-Sep-21,0.0195,0.016,0.00038025,0.000256
11:13:15,30-Sep-21,0.0195,0.016,0.00038025,0.000256
11:13:15,30-Sep-21,0.0195,0.016,0.00038025,0.000256
11:13:15,30-Sep-21,0.0195,0.016,0.00038025,0.000256
11:13:15,30-Sep-21,0.0195,0.016,0.00038025,0.000256
11:13:15,30-Sep-21,0.0195,0.016,0.00038025,0.000256
11:13:15,30-Sep-21,0.0195,0.016,0.00038025,0.000256
11:13:15,30-Sep-21,0.0195,0.016,0.00038025,0.000256
11:13:15,30-Sep-21,0.0145,0.016,0.00021025,0.000256
11:13:15,30-Sep-21,0.0145,0.016,0.00021025,0.000256
11:13:15,30-Sep-21,0.0145,0.015,0.00021025,0.000225
11:13:15,30-Sep-21,0.0145,0.015,0.00021025,0.000225
11:13:15,30-Sep-21,0.0145,0.015,0.00021025,0.000225
11:13:15,30-Sep-21,0.0145,0.015,0.00021025,0.000225
11:13:15,30-Sep-21,0.0145,0.015,0.00021025,0.000225
11:13:15,30-Sep-21,0.0145,0.015,0.00021025,0.000225
11:13:15,30-Sep-21,0.0145,0.015,0.00021025,0.000225
11:13:15,30-Sep-21,0.0145,0.015,0.00021025,0.000225
11:13:15,30-Sep-21,0.0145,0.015,0.00021025,0.000225
11:13:15,30-Sep-21,0.0145,0.015,0.00021025,0.000225
11:13:15,30-Sep-21,0.0145,0.015,0.00021025,0.000225
11:13:15,30-Sep-21,0.0145,0.015,0.00021025,0.000225
11:13:15,30-Sep-21,0.0145,0.015,0.00021025,0.000225
11:13:15,30-Sep-21,0.0145,0.015,0.00021025,0.000225
11:13:15,30-Sep-21,0.0145,0.015,0.00021025,0.000225
11:13:15,30-Sep-21,0.0145,0.015,0.00021025,0.000225
11:13:15,30-Sep-21,0.0145,0.015,0.00021025,0.000225
11:13:15,30-Sep-21,0.0145,0.015,0.00021025,0.000225
11:13:15,30-Sep-21,0.0145,0.015,0.00021025,0.000225
11:13:15,30-Sep-21,0.0145,0.015,0.00021025,0.000225
11:13:15,30-Sep-21,0.0145,0.015,0.00021025,0.000225
11:13:15,30-Sep-21,0.0145,0.015,0.00021025,0.000225
11:13:15,30-Sep-21,0.0145,0.015,0.00021025,0.000225
11:13:15,30-Sep-21,0.0145,0.015,0.00021025,0.000225
11:13:15,30-Sep-21,0.0145,0.014,0.00021025,0.000196
11:13:15,30-Sep-21,0.0145,0.014,0.00021025,0.000196
11:13:15,30-Sep-21,0.0145,0.014,0.00021025,0.000196
11:13:15,30-Sep-21,0.0145,0.014,0.00021025,0.000196
11:13:15,30-Sep-21,0.0145,0.014,0.00021025,0.000196
11:13:15,30-Sep-21,0.0145,0.014,0.00021025,0.000196
11:13:15,30-Sep-21,0.0145,0.014,0.00021025,0.000196
11:13:15,30-Sep-21,0.0145,0.014,0.00021025,0.000196
11:13:15,30-Sep-21,0.0145,0.014,0.00021025,0.000196
11:13:15,30-Sep-21,0.0145,0.014,0.00021025,0.000196
11:13:15,30-Sep-21,0.0145,0.014,0.00021025,0.000196
11:13:15,30-Sep-21,0.0145,0.014,0.00021025,0.000196
11:13:15,30-Sep-21,0.0145,0.014,0.00021025,0.000196
11:13:15,30-Sep-21,0.0145,0.014,0.00021025,0.000196
11:13:15,30-Sep-21,0.0145,0.014,0.00021025,0.000196
11:13:15,30-Sep-21,0.0145,0.014,0.00021025,0.000196
11:13:15,30-Sep-21,0.0145,0.014,0.00021025,0.000196
11:13:15,30-Sep-21,0.0145,0.014,0.00021025,0.000196
11:13:15,30-Sep-21,0.0145,0.014,0.00021025,0.000196
11:13:15,30-Sep-21,0.0145,0.014,0.00021025,0.000196
11:13:15,30-Sep-21,0.0145,0.014,0.00021025,0.000196
11:13:15,30-Sep-21,0.0145,0.014,0.00021025,0.000196
11:13:15,30-Sep-21,0.0145,0.014,0.00021025,0.000196
11:13:15,30-Sep-21,0.0145,0.014,0.00021025,0.000196
11:13:15,30-Sep-21,0.0145,0.014,0.00021025,0.000196
11:13:15,30-Sep-21,0.0145,0.014,0.00021025,0.000196
11:13:15,30-Sep-21,0.0145,0.014,0.00021025,0.000196
11:13:15,30-Sep-21,0.0145,0.014,0.00021025,0.000196
11:13:15,30-Sep-21,0.0145,0.014,0.00021025,0.000196
11:13:15,30-Sep-21,0.0145,0.014,0.00021025,0.000196
11:13:15,30-Sep-21,0.0145,0.015,0.00021025,0.000225
11:13:15,30-Sep-21,0.0145,0.015,0.00021025,0.000225
11:13:15,30-Sep-21,0.0145,0.015,0.00021025,0.000225
11:13:15,30-Sep-21,0.0145,0.015,0.00021025,0.000225
11:13:15,30-Sep-21,0.0145,0.015,0.00021025,0.000225
11:13:15,30-Sep-21,0.0145,0.015,0.00021025,0.000225
11:13:15,30-Sep-21,0.0145,0.015,0.00021025,0.000225
11:13:15,30-Sep-21,0.0145,0.015,0.00021025,0.000225
11:13:15,30-Sep-21,0.0145,0.015,0.00021025,0.000225
11:13:15,30-Sep-21,0.0145,0.015,0.00021025,0.000225
11:13:15,30-Sep-21,0.0145,0.015,0.00021025,0.000225
11:13:15,30-Sep-21,0.0145,0.015,0.00021025,0.000225
11:13:15,30-Sep-21,0.0145,0.015,0.00021025,0.000225
11:13:15,30-Sep-21,0.0145,0.015,0.00021025,0.000225
11:13:15,30-Sep-21,0.0145,0.015,0.00021025,0.000225
11:13:15,30-Sep-21,0.0145,0.015,0.00021025,0.000225
11:13:15,30-Sep-21,0.0145,0.015,0.00021025,0.000225
11:13:15,30-Sep-21,0.0145,0.015,0.00021025,0.000225
11:13:15,30-Sep-21,0.0145,0.015,0.00021025,0.000225
11:13:15,30-Sep-21,0.0145,0.015,0.00021025,0.000225
11:13:15,30-Sep-21,0.0195,0.015,0.00038025,0.000225
11:13:15,30-Sep-21,0.0195,0.015,0.00038025,0.000225
11:13:15,30-Sep-21,0.0145,0.015,0.00021025,0.000225
11:13:15,30-Sep-21,0.0145,0.015,0.00021025,0.000225
11:13:15,30-Sep-21,0.0145,0.015,0.00021025,0.000225
11:13:15,30-Sep-21,0.0145,0.015,0.00021025,0.000225
11:13:15,30-Sep-21,0.0145,0.015,0.00021025,0.000225
11:13:15,30-Sep-21,0.0145,0.015,0.00021025,0.000225
11:13:15,30-Sep-21,0.0145,0.015,0.00021025,0.000225
11:13:15,30-Sep-21,0.0145,0.015,0.00021025,0.000225
11:13:15,30-Sep-21,0.0145,0.015,0.00021025,0.000225
11:13:15,30-Sep-21,0.0145,0.015,0.00021025,0.000225
11:13:15,30-Sep-21,0.0145,0.015,0.00021025,0.000225
11:13:15,30-Sep-21,0.0145,0.015,0.00021025,0.000225
11:13:15,30-Sep-21,0.0195,0.015,0.00038025,0.000225
11:13:15,30-Sep-21,0.0195,0.015,0.00038025,0.000225
11:13:15,30-Sep-21,0.0195,0.015,0.00038025,0.000225
11:13:15,30-Sep-21,0.0195,0.015,0.00038025,0.000225
11:13:15,30-Sep-21,0.0145,0.015,0.00021025,0.000225
11:13:15,30-Sep-21,0.0145,0.015,0.00021025,0.000225
11:13:15,30-Sep-21,0.0145,0.015,0.00021025,0.000225
11:13:15,30-Sep-21,0.0145,0.015,0.00021025,0.000225
11:13:15,30-Sep-21,0.0145,0.015,0.00021025,0.000225
11:13:15,30-Sep-21,0.0145,0.015,0.00021025,0.000225
11:13:15,30-Sep-21,0.0145,0.015,0.00021025,0.000225
11:13:15,30-Sep-21,0.0145,0.015,0.00021025,0.000225
11:13:15,30-Sep-21,0.0145,0.015,0.00021025,0.000225
11:13:15,30-Sep-21,0.0145,0.015,0.00021025,0.000225
11:13:15,30-Sep-21,0.0145,0.015,0.00021025,0.000225
11:13:15,30-Sep-21,0.0145,0.015,0.00021025,0.000225
11:13:15,30-Sep-21,0.0145,0.015,0.00021025,0.000225
11:13:15,30-Sep-21,0.0145,0.015,0.00021025,0.000225
11:13:15,30-Sep-21,0.0145,0.015,0.00021025,0.000225
11:13:15,30-Sep-21,0.0145,0.015,0.00021025,0.000225
11:13:15,30-Sep-21,0.0145,0.015,0.00021025,0.000225
11:13:15,30-Sep-21,0.0145,0.015,0.00021025,0.000225
11:13:15,30-Sep-21,0.0145,0.015,0.00021025,0.000225
11:13:15,30-Sep-21,0.0145,0.014,0.00021025,0.000196
11:13:15,30-Sep-21,0.0145,0.014,0.00021025,0.000196
11:13:15,30-Sep-21,0.0145,0.014,0.00021025,0.000196
11:13:15,30-Sep-21,0.0145,0.014,0.00021025,0.000196
11:13:15,30-Sep-21,0.0145,0.014,0.00021025,0.000196
11:13:15,30-Sep-21,0.0145,0.014,0.00021025,0.000196
11:13:15,30-Sep-21,0.0145,0.014,0.00021025,0.000196
11:13:15,30-Sep-21,0.0145,0.014,0.00021025,0.000196
11:13:15,30-Sep-21,0.0145,0.014,0.00021025,0.000196
11:13:15,30-Sep-21,0.0145,0.014,0.00021025,0.000196
11:13:15,30-Sep-21,0.0145,0.014,0.00021025,0.000196
11:13:15,30-Sep-21,0.0145,0.014,0.00021025,0.000196
11:13:15,30-Sep-21,0.0145,0.014,0.00021025,0.000196
11:13:15,30-Sep-21,0.0145,0.014,0.00021025,0.000196
11:13:15,30-Sep-21,0.0145,0.014,0.00021025,0.000196
11:13:15,30-Sep-21,0.0145,0.014,0.00021025,0.000196
11:13:15,30-Sep-21,0.0145,0.014,0.00021025,0.000196
11:13:15,30-Sep-21,0.0145,0.014,0.00021025,0.000196
11:13:15,30-Sep-21,0.0145,0.014,0.00021025,0.000196
11:13:15,30-Sep-21,0.0145,0.014,0.00021025,0.000196
11:13:15,30-Sep-21,0.01,0.014,0.0001,0.000196
11:13:15,30-Sep-21,0.01,0.014,0.0001,0.000196
11:13:15,30-Sep-21,0.01,0.014,0.0001,0.000196
11:13:15,30-Sep-21,0.0145,0.014,0.00021025,0.000196
11:13:15,30-Sep-21,0.0145,0.014,0.00021025,0.000196
11:13:15,30-Sep-21,0.0145,0.014,0.00021025,0.000196
11:13:15,30-Sep-21,0.0145,0.014,0.00021025,0.000196
11:13:15,30-Sep-21,0.0145,0.014,0.00021025,0.000196
11:13:15,30-Sep-21,0.0145,0.014,0.00021025,0.000196
11:13:15,30-Sep-21,0.0145,0.014,0.00021025,0.000196
11:13:15,30-Sep-21,0.0145,0.014,0.00021025,0.000196
11:13:15,30-Sep-21,0.0145,0.015,0.00021025,0.000225
11:13:15,30-Sep-21,0.0145,0.015,0.00021025,0.000225
11:13:15,30-Sep-21,0.0145,0.015,0.00021025,0.000225
11:13:15,30-Sep-21,0.0145,0.015,0.00021025,0.000225
11:13:15,30-Sep-21,0.0145,0.015,0.00021025,0.000225
11:13:15,30-Sep-21,0.0145,0.015,0.00021025,0.000225
11:13:15,30-Sep-21,0.0145,0.015,0.00021025,0.000225
11:13:16,30-Sep-21,0.0145,0.015,0.00021025,0.000225
11:13:16,30-Sep-21,0.0145,0.015,0.00021025,0.000225
11:13:16,30-Sep-21,0.0195,0.015,0.00038025,0.000225
11:13:16,30-Sep-21,0.0195,0.015,0.00038025,0.000225
11:13:16,30-Sep-21,0.0195,0.015,0.00038025,0.000225
11:13:16,30-Sep-21,0.0145,0.015,0.00021025,0.000225
11:13:16,30-Sep-21,0.0145,0.015,0.00021025,0.000225
11:13:16,30-Sep-21,0.0145,0.015,0.00021025,0.000225
11:13:16,30-Sep-21,0.0145,0.015,0.00021025,0.000225
11:13:16,30-Sep-21,0.0145,0.015,0.00021025,0.000225
11:13:16,30-Sep-21,0.0145,0.015,0.00021025,0.000225
11:13:16,30-Sep-21,0.0145,0.015,0.00021025,0.000225
11:13:16,30-Sep-21,0.0145,0.015,0.00021025,0.000225
11:13:16,30-Sep-21,0.0145,0.015,0.00021025,0.000225
11:13:16,30-Sep-21,0.0145,0.015,0.00021025,0.000225
11:13:16,30-Sep-21,0.0145,0.015,0.00021025,0.000225
11:13:16,30-Sep-21,0.0145,0.015,0.00021025,0.000225
11:13:16,30-Sep-21,0.0145,0.015,0.00021025,0.000225
11:13:16,30-Sep-21,0.0145,0.015,0.00021025,0.000225
11:13:16,30-Sep-21,0.0145,0.015,0.00021025,0.000225
11:13:16,30-Sep-21,0.0145,0.015,0.00021025,0.000225
11:13:16,30-Sep-21,0.0145,0.015,0.00021025,0.000225
11:13:16,30-Sep-21,0.0145,0.015,0.00021025,0.000225
11:13:16,30-Sep-21,0.0145,0.015,0.00021025,0.000225
11:13:16,30-Sep-21,0.0145,0.015,0.00021025,0.000225
11:13:16,30-Sep-21,0.0145,0.015,0.00021025,0.000225
11:13:16,30-Sep-21,0.0145,0.015,0.00021025,0.000225
11:13:16,30-Sep-21,0.0145,0.015,0.00021025,0.000225
11:13:16,30-Sep-21,0.0145,0.015,0.00021025,0.000225
11:13:16,30-Sep-21,0.0145,0.015,0.00021025,0.000225
11:13:16,30-Sep-21,0.0145,0.015,0.00021025,0.000225
11:13:16,30-Sep-21,0.0145,0.015,0.00021025,0.000225
11:13:16,30-Sep-21,0.0145,0.015,0.00021025,0.000225
11:13:16,30-Sep-21,0.0145,0.015,0.00021025,0.000225
11:13:16,30-Sep-21,0.0145,0.015,0.00021025,0.000225
11:13:16,30-Sep-21,0.0145,0.015,0.00021025,0.000225
11:13:16,30-Sep-21,0.0145,0.015,0.00021025,0.000225
11:13:16,30-Sep-21,0.0145,0.014,0.00021025,0.000196
11:13:16,30-Sep-21,0.0145,0.014,0.00021025,0.000196
11:13:16,30-Sep-21,0.0145,0.014,0.00021025,0.000196
11:13:16,30-Sep-21,0.0145,0.014,0.00021025,0.000196
11:13:16,30-Sep-21,0.0145,0.014,0.00021025,0.000196
11:13:16,30-Sep-21,0.0145,0.014,0.00021025,0.000196
11:13:16,30-Sep-21,0.0145,0.014,0.00021025,0.000196
11:13:16,30-Sep-21,0.0145,0.014,0.00021025,0.000196
11:13:16,30-Sep-21,0.0145,0.014,0.00021025,0.000196
11:13:16,30-Sep-21,0.0145,0.014,0.00021025,0.000196
11:13:16,30-Sep-21,0.0145,0.014,0.00021025,0.000196
11:13:16,30-Sep-21,0.0145,0.014,0.00021025,0.000196
11:13:16,30-Sep-21,0.0145,0.014,0.00021025,0.000196
11:13:16,30-Sep-21,0.0145,0.014,0.00021025,0.000196
11:13:16,30-Sep-21,0.0145,0.014,0.00021025,0.000196
11:13:16,30-Sep-21,0.0145,0.014,0.00021025,0.000196
11:13:16,30-Sep-21,0.0145,0.014,0.00021025,0.000196
11:13:16,30-Sep-21,0.0145,0.014,0.00021025,0.000196
11:13:16,30-Sep-21,0.0145,0.014,0.00021025,0.000196
11:13:16,30-Sep-21,0.0145,0.014,0.00021025,0.000196
11:13:16,30-Sep-21,0.0145,0.014,0.00021025,0.000196
11:13:16,30-Sep-21,0.0145,0.014,0.00021025,0.000196
11:13:16,30-Sep-21,0.0145,0.014,0.00021025,0.000196
11:13:16,30-Sep-21,0.0145,0.014,0.00021025,0.000196
11:13:16,30-Sep-21,0.0145,0.014,0.00021025,0.000196
11:13:16,30-Sep-21,0.0145,0.014,0.00021025,0.000196
11:13:16,30-Sep-21,0.0145,0.014,0.00021025,0.000196
11:13:16,30-Sep-21,0.01,0.014,0.0001,0.000196
11:13:16,30-Sep-21,0.01,0.014,0.0001,0.000196
11:13:16,30-Sep-21,0.01,0.014,0.0001,0.000196
11:13:16,30-Sep-21,0.0145,0.014,0.00021025,0.000196
11:13:16,30-Sep-21,0.0145,0.014,0.00021025,0.000196
11:13:16,30-Sep-21,0.0145,0.014,0.00021025,0.000196
11:13:16,30-Sep-21,0.0145,0.014,0.00021025,0.000196
11:13:16,30-Sep-21,0.0145,0.014,0.00021025,0.000196
11:13:16,30-Sep-21,0.0145,0.014,0.00021025,0.000196
11:13:16,30-Sep-21,0.01,0.014,0.0001,0.000196
11:13:16,30-Sep-21,0.01,0.014,0.0001,0.000196
11:13:16,30-Sep-21,0.0145,0.014,0.00021025,0.000196
11:13:16,30-Sep-21,0.0145,0.014,0.00021025,0.000196
11:13:16,30-Sep-21,0.0145,0.014,0.00021025,0.000196
11:13:16,30-Sep-21,0.0145,0.014,0.00021025,0.000196
11:13:16,30-Sep-21,0.0145,0.014,0.00021025,0.000196
11:13:16,30-Sep-21,0.0145,0.014,0.00021025,0.000196
11:13:16,30-Sep-21,0.0145,0.014,0.00021025,0.000196
11:13:16,30-Sep-21,0.0145,0.014,0.00021025,0.000196
11:13:16,30-Sep-21,0.0145,0.014,0.00021025,0.000196
11:13:16,30-Sep-21,0.0145,0.014,0.00021025,0.000196
11:13:16,30-Sep-21,0.0145,0.014,0.00021025,0.000196
11:13:16,30-Sep-21,0.0145,0.014,0.00021025,0.000196
11:13:16,30-Sep-21,0.0145,0.014,0.00021025,0.000196
11:13:16,30-Sep-21,0.0145,0.014,0.00021025,0.000196
11:13:16,30-Sep-21,0.0145,0.014,0.00021025,0.000196
11:13:16,30-Sep-21,0.0145,0.014,0.00021025,0.000196
11:13:16,30-Sep-21,0.0145,0.014,0.00021025,0.000196
11:13:16,30-Sep-21,0.0145,0.014,0.00021025,0.000196
11:13:16,30-Sep-21,0.0145,0.014,0.00021025,0.000196
11:13:16,30-Sep-21,0.0145,0.014,0.00021025,0.000196
11:13:16,30-Sep-21,0.0145,0.014,0.00021025,0.000196
11:13:16,30-Sep-21,0.0145,0.014,0.00021025,0.000196
11:13:16,30-Sep-21,0.0145,0.014,0.00021025,0.000196
11:13:16,30-Sep-21,0.0145,0.014,0.00021025,0.000196
11:13:16,30-Sep-21,0.0145,0.014,0.00021025,0.000196
11:13:16,30-Sep-21,0.0145,0.014,0.00021025,0.000196
11:13:16,30-Sep-21,0.0145,0.014,0.00021025,0.000196
11:13:16,30-Sep-21,0.0145,0.014,0.00021025,0.000196
11:13:16,30-Sep-21,0.0145,0.014,0.00021025,0.000196
11:13:16,30-Sep-21,0.0145,0.014,0.00021025,0.000196
11:13:16,30-Sep-21,0.0145,0.014,0.00021025,0.000196
11:13:16,30-Sep-21,0.0145,0.014,0.00021025,0.000196
11:13:16,30-Sep-21,0.0145,0.014,0.00021025,0.000196
11:13:16,30-Sep-21,0.0145,0.014,0.00021025,0.000196
11:13:16,30-Sep-21,0.0145,0.014,0.00021025,0.000196
11:13:16,30-Sep-21,0.0145,0.014,0.00021025,0.000196
11:13:16,30-Sep-21,0.0145,0.014,0.00021025,0.000196
11:13:16,30-Sep-21,0.0145,0.014,0.00021025,0.000196
11:13:16,30-Sep-21,0.0145,0.015,0.00021025,0.000225
11:13:16,30-Sep-21,0.0145,0.015,0.00021025,0.000225
11:13:16,30-Sep-21,0.0145,0.015,0.00021025,0.000225
11:13:16,30-Sep-21,0.0145,0.015,0.00021025,0.000225
11:13:16,30-Sep-21,0.0145,0.015,0.00021025,0.000225
11:13:16,30-Sep-21,0.0145,0.015,0.00021025,0.000225
11:13:16,30-Sep-21,0.0145,0.015,0.00021025,0.000225
11:13:16,30-Sep-21,0.0145,0.015,0.00021025,0.000225
11:13:16,30-Sep-21,0.0145,0.015,0.00021025,0.000225
11:13:16,30-Sep-21,0.0145,0.015,0.00021025,0.000225
11:13:16,30-Sep-21,0.0145,0.015,0.00021025,0.000225
11:13:16,30-Sep-21,0.0145,0.016,0.00021025,0.000256
11:13:16,30-Sep-21,0.0145,0.016,0.00021025,0.000256
11:13:16,30-Sep-21,0.0145,0.016,0.00021025,0.000256
11:13:16,30-Sep-21,0.0145,0.016,0.00021025,0.000256
11:13:16,30-Sep-21,0.0145,0.016,0.00021025,0.000256
11:13:16,30-Sep-21,0.0145,0.016,0.00021025,0.000256
11:13:16,30-Sep-21,0.0145,0.017,0.00021025,0.000289
11:13:16,30-Sep-21,0.0195,0.017,0.00038025,0.000289
11:13:16,30-Sep-21,0.0195,0.017,0.00038025,0.000289
11:13:16,30-Sep-21,0.0195,0.017,0.00038025,0.000289
11:13:16,30-Sep-21,0.0195,0.017,0.00038025,0.000289
11:13:16,30-Sep-21,0.0195,0.017,0.00038025,0.000289
11:13:16,30-Sep-21,0.0195,0.018,0.00038025,0.000324
11:13:16,30-Sep-21,0.0195,0.018,0.00038025,0.000324
11:13:16,30-Sep-21,0.0145,0.018,0.00021025,0.000324
11:13:16,30-Sep-21,0.0145,0.018,0.00021025,0.000324
11:13:16,30-Sep-21,0.0145,0.018,0.00021025,0.000324
11:13:16,30-Sep-21,0.0195,0.018,0.00038025,0.000324
11:13:16,30-Sep-21,0.0195,0.019,0.00038025,0.000361
11:13:16,30-Sep-21,0.0195,0.019,0.00038025,0.000361
11:13:16,30-Sep-21,0.0195,0.019,0.00038025,0.000361
11:13:16,30-Sep-21,0.0195,0.019,0.00038025,0.000361
11:13:16,30-Sep-21,0.0195,0.019,0.00038025,0.000361
11:13:16,30-Sep-21,0.0195,0.019,0.00038025,0.000361
11:13:16,30-Sep-21,0.0195,0.019,0.00038025,0.000361
11:13:16,30-Sep-21,0.0195,0.019,0.00038025,0.000361
11:13:16,30-Sep-21,0.0195,0.019,0.00038025,0.000361
11:13:16,30-Sep-21,0.0195,0.019,0.00038025,0.000361
11:13:16,30-Sep-21,0.0195,0.019,0.00038025,0.000361
11:13:16,30-Sep-21,0.0195,0.019,0.00038025,0.000361
11:13:16,30-Sep-21,0.0195,0.019,0.00038025,0.000361
11:13:16,30-Sep-21,0.0195,0.019,0.00038025,0.000361
11:13:16,30-Sep-21,0.0195,0.019,0.00038025,0.000361
11:13:16,30-Sep-21,0.0195,0.019,0.00038025,0.000361
11:13:16,30-Sep-21,0.0195,0.019,0.00038025,0.000361
11:13:16,30-Sep-21,0.0195,0.019,0.00038025,0.000361
11:13:16,30-Sep-21,0.0195,0.019,0.00038025,0.000361
11:13:16,30-Sep-21,0.0195,0.019,0.00038025,0.000361
11:13:16,30-Sep-21,0.0195,0.019,0.00038025,0.000361
11:13:16,30-Sep-21,0.0195,0.019,0.00038025,0.000361
11:13:16,30-Sep-21,0.0195,0.019,0.00038025,0.000361
11:13:16,30-Sep-21,0.0195,0.018,0.00038025,0.000324
11:13:16,30-Sep-21,0.0195,0.018,0.00038025,0.000324
11:13:16,30-Sep-21,0.0195,0.018,0.00038025,0.000324
11:13:16,30-Sep-21,0.0195,0.018,0.00038025,0.000324
11:13:16,30-Sep-21,0.0195,0.018,0.00038025,0.000324
11:13:16,30-Sep-21,0.0195,0.018,0.00038025,0.000324
11:13:16,30-Sep-21,0.0195,0.018,0.00038025,0.000324
11:13:16,30-Sep-21,0.0195,0.017,0.00038025,0.000289
11:13:16,30-Sep-21,0.0195,0.017,0.00038025,0.000289
11:13:16,30-Sep-21,0.0145,0.017,0.00021025,0.000289
11:13:16,30-Sep-21,0.0145,0.017,0.00021025,0.000289
11:13:16,30-Sep-21,0.0145,0.017,0.00021025,0.000289
11:13:17,30-Sep-21,0.0145,0.017,0.00021025,0.000289
11:13:17,30-Sep-21,0.0145,0.017,0.00021025,0.000289
11:13:17,30-Sep-21,0.0145,0.017,0.00021025,0.000289
11:13:17,30-Sep-21,0.0145,0.017,0.00021025,0.000289
11:13:17,30-Sep-21,0.0145,0.017,0.00021025,0.000289
11:13:17,30-Sep-21,0.0145,0.017,0.00021025,0.000289
11:13:17,30-Sep-21,0.0145,0.017,0.00021025,0.000289
11:13:17,30-Sep-21,0.0145,0.017,0.00021025,0.000289
11:13:17,30-Sep-21,0.0145,0.017,0.00021025,0.000289
11:13:17,30-Sep-21,0.0145,0.017,0.00021025,0.000289
11:13:17,30-Sep-21,0.0145,0.017,0.00021025,0.000289
11:13:17,30-Sep-21,0.0145,0.017,0.00021025,0.000289
11:13:17,30-Sep-21,0.0145,0.017,0.00021025,0.000289
11:13:17,30-Sep-21,0.0145,0.017,0.00021025,0.000289
11:13:17,30-Sep-21,0.0195,0.017,0.00038025,0.000289
11:13:17,30-Sep-21,0.0195,0.017,0.00038025,0.000289
11:13:17,30-Sep-21,0.0195,0.017,0.00038025,0.000289
11:13:17,30-Sep-21,0.0195,0.018,0.00038025,0.000324
11:13:17,30-Sep-21,0.0195,0.018,0.00038025,0.000324
11:13:17,30-Sep-21,0.0195,0.018,0.00038025,0.000324
11:13:17,30-Sep-21,0.0195,0.018,0.00038025,0.000324
11:13:17,30-Sep-21,0.0195,0.018,0.00038025,0.000324
11:13:17,30-Sep-21,0.0195,0.018,0.00038025,0.000324
11:13:17,30-Sep-21,0.0195,0.018,0.00038025,0.000324
11:13:17,30-Sep-21,0.0195,0.018,0.00038025,0.000324
11:13:17,30-Sep-21,0.0195,0.019,0.00038025,0.000361
11:13:17,30-Sep-21,0.0195,0.019,0.00038025,0.000361
11:13:17,30-Sep-21,0.0195,0.019,0.00038025,0.000361
11:13:17,30-Sep-21,0.0195,0.019,0.00038025,0.000361
11:13:17,30-Sep-21,0.0195,0.019,0.00038025,0.000361
11:13:17,30-Sep-21,0.0195,0.019,0.00038025,0.000361
11:13:17,30-Sep-21,0.0195,0.019,0.00038025,0.000361
11:13:17,30-Sep-21,0.0195,0.019,0.00038025,0.000361
11:13:17,30-Sep-21,0.0195,0.019,0.00038025,0.000361
11:13:17,30-Sep-21,0.0195,0.019,0.00038025,0.000361
11:13:17,30-Sep-21,0.0195,0.019,0.00038025,0.000361
11:13:17,30-Sep-21,0.0195,0.019,0.00038025,0.000361
11:13:17,30-Sep-21,0.0195,0.02,0.00038025,0.0004
11:13:17,30-Sep-21,0.0195,0.02,0.00038025,0.0004
11:13:17,30-Sep-21,0.0195,0.02,0.00038025,0.0004
11:13:17,30-Sep-21,0.0195,0.02,0.00038025,0.0004
11:13:17,30-Sep-21,0.0195,0.02,0.00038025,0.0004
11:13:17,30-Sep-21,0.0195,0.02,0.00038025,0.0004
11:13:17,30-Sep-21,0.0195,0.02,0.00038025,0.0004
11:13:17,30-Sep-21,0.0195,0.02,0.00038025,0.0004
11:13:17,30-Sep-21,0.0195,0.02,0.00038025,0.0004
11:13:17,30-Sep-21,0.0195,0.02,0.00038025,0.0004
11:13:17,30-Sep-21,0.0195,0.02,0.00038025,0.0004
11:13:17,30-Sep-21,0.0195,0.02,0.00038025,0.0004
11:13:17,30-Sep-21,0.0195,0.02,0.00038025,0.0004
11:13:17,30-Sep-21,0.0195,0.02,0.00038025,0.0004
11:13:17,30-Sep-21,0.0195,0.02,0.00038025,0.0004
11:13:17,30-Sep-21,0.0195,0.02,0.00038025,0.0004
11:13:17,30-Sep-21,0.0195,0.02,0.00038025,0.0004
11:13:17,30-Sep-21,0.0195,0.02,0.00038025,0.0004
11:13:17,30-Sep-21,0.0195,0.02,0.00038025,0.0004
11:13:17,30-Sep-21,0.0195,0.02,0.00038025,0.0004
11:13:17,30-Sep-21,0.0195,0.02,0.00038025,0.0004
11:13:17,30-Sep-21,0.0195,0.02,0.00038025,0.0004
11:13:17,30-Sep-21,0.0195,0.02,0.00038025,0.0004
11:13:17,30-Sep-21,0.0195,0.02,0.00038025,0.0004
11:13:17,30-Sep-21,0.0195,0.02,0.00038025,0.0004
11:13:17,30-Sep-21,0.0195,0.02,0.00038025,0.0004
11:13:17,30-Sep-21,0.0195,0.02,0.00038025,0.0004
11:13:17,30-Sep-21,0.0195,0.02,0.00038025,0.0004
11:13:17,30-Sep-21,0.0195,0.02,0.00038025,0.0004
11:13:17,30-Sep-21,0.0195,0.02,0.00038025,0.0004
11:13:17,30-Sep-21,0.0195,0.02,0.00038025,0.0004
11:13:17,30-Sep-21,0.0195,0.02,0.00038025,0.0004
11:13:17,30-Sep-21,0.0195,0.02,0.00038025,0.0004
11:13:17,30-Sep-21,0.0195,0.02,0.00038025,0.0004
11:13:17,30-Sep-21,0.0195,0.02,0.00038025,0.0004
11:13:17,30-Sep-21,0.0195,0.02,0.00038025,0.0004
11:13:17,30-Sep-21,0.0195,0.02,0.00038025,0.0004
11:13:17,30-Sep-21,0.0195,0.02,0.00038025,0.0004
11:13:17,30-Sep-21,0.0195,0.021,0.00038025,0.000441
11:13:17,30-Sep-21,0.0195,0.021,0.00038025,0.000441
11:13:17,30-Sep-21,0.0195,0.021,0.00038025,0.000441
11:13:17,30-Sep-21,0.0195,0.021,0.00038025,0.000441
11:13:17,30-Sep-21,0.0195,0.021,0.00038025,0.000441
11:13:17,30-Sep-21,0.0195,0.021,0.00038025,0.000441
11:13:17,30-Sep-21,0.0195,0.021,0.00038025,0.000441
11:13:17,30-Sep-21,0.0195,0.021,0.00038025,0.000441
11:13:17,30-Sep-21,0.0195,0.021,0.00038025,0.000441
11:13:17,30-Sep-21,0.0245,0.021,0.00060025,0.000441
11:13:17,30-Sep-21,0.0245,0.021,0.00060025,0.000441
11:13:17,30-Sep-21,0.0245,0.021,0.00060025,0.000441
11:13:17,30-Sep-21,0.0245,0.022,0.00060025,0.000484
11:13:17,30-Sep-21,0.0245,0.022,0.00060025,0.000484
11:13:17,30-Sep-21,0.0245,0.022,0.00060025,0.000484
11:13:17,30-Sep-21,0.0245,0.022,0.00060025,0.000484
11:13:17,30-Sep-21,0.0195,0.022,0.00038025,0.000484
11:13:17,30-Sep-21,0.0245,0.022,0.00060025,0.000484
11:13:17,30-Sep-21,0.0245,0.022,0.00060025,0.000484
11:13:17,30-Sep-21,0.0245,0.021,0.00060025,0.000441
11:13:17,30-Sep-21,0.0245,0.021,0.00060025,0.000441
11:13:17,30-Sep-21,0.0195,0.021,0.00038025,0.000441
11:13:17,30-Sep-21,0.0195,0.021,0.00038025,0.000441
11:13:17,30-Sep-21,0.0195,0.021,0.00038025,0.000441
11:13:17,30-Sep-21,0.0195,0.021,0.00038025,0.000441
11:13:17,30-Sep-21,0.0195,0.021,0.00038025,0.000441
11:13:17,30-Sep-21,0.0195,0.021,0.00038025,0.000441
11:13:17,30-Sep-21,0.0195,0.021,0.00038025,0.000441
11:13:17,30-Sep-21,0.0195,0.021,0.00038025,0.000441
11:13:17,30-Sep-21,0.0195,0.02,0.00038025,0.0004
11:13:17,30-Sep-21,0.0195,0.02,0.00038025,0.0004
11:13:17,30-Sep-21,0.0195,0.02,0.00038025,0.0004
11:13:17,30-Sep-21,0.0245,0.02,0.00060025,0.0004
11:13:17,30-Sep-21,0.0245,0.02,0.00060025,0.0004
11:13:17,30-Sep-21,0.0195,0.02,0.00038025,0.0004
11:13:17,30-Sep-21,0.0195,0.02,0.00038025,0.0004
11:13:17,30-Sep-21,0.0195,0.02,0.00038025,0.0004
11:13:17,30-Sep-21,0.0195,0.019,0.00038025,0.000361
11:13:17,30-Sep-21,0.0195,0.019,0.00038025,0.000361
11:13:17,30-Sep-21,0.0195,0.019,0.00038025,0.000361
11:13:17,30-Sep-21,0.0195,0.019,0.00038025,0.000361
11:13:17,30-Sep-21,0.0195,0.019,0.00038025,0.000361
11:13:17,30-Sep-21,0.0195,0.019,0.00038025,0.000361
11:13:17,30-Sep-21,0.0145,0.019,0.00021025,0.000361
11:13:17,30-Sep-21,0.0145,0.019,0.00021025,0.000361
11:13:17,30-Sep-21,0.0145,0.019,0.00021025,0.000361
11:13:17,30-Sep-21,0.0145,0.019,0.00021025,0.000361
11:13:17,30-Sep-21,0.0145,0.019,0.00021025,0.000361
11:13:17,30-Sep-21,0.0195,0.019,0.00038025,0.000361
11:13:17,30-Sep-21,0.0195,0.019,0.00038025,0.000361
11:13:17,30-Sep-21,0.0195,0.019,0.00038025,0.000361
11:13:17,30-Sep-21,0.0195,0.019,0.00038025,0.000361
11:13:17,30-Sep-21,0.0195,0.019,0.00038025,0.000361
11:13:17,30-Sep-21,0.0195,0.019,0.00038025,0.000361
11:13:17,30-Sep-21,0.0195,0.019,0.00038025,0.000361
11:13:17,30-Sep-21,0.0195,0.019,0.00038025,0.000361
11:13:17,30-Sep-21,0.0195,0.019,0.00038025,0.000361
11:13:17,30-Sep-21,0.0195,0.019,0.00038025,0.000361
11:13:17,30-Sep-21,0.0195,0.019,0.00038025,0.000361
11:13:17,30-Sep-21,0.0195,0.019,0.00038025,0.000361
11:13:17,30-Sep-21,0.0195,0.019,0.00038025,0.000361
11:13:17,30-Sep-21,0.0195,0.019,0.00038025,0.000361
11:13:17,30-Sep-21,0.0195,0.019,0.00038025,0.000361
11:13:17,30-Sep-21,0.0195,0.019,0.00038025,0.000361
11:13:17,30-Sep-21,0.0195,0.019,0.00038025,0.000361
11:13:17,30-Sep-21,0.0195,0.019,0.00038025,0.000361
11:13:17,30-Sep-21,0.0195,0.019,0.00038025,0.000361
11:13:17,30-Sep-21,0.0195,0.019,0.00038025,0.000361
11:13:17,30-Sep-21,0.0195,0.019,0.00038025,0.000361
11:13:17,30-Sep-21,0.0195,0.019,0.00038025,0.000361
11:13:17,30-Sep-21,0.0195,0.019,0.00038025,0.000361
11:13:17,30-Sep-21,0.0195,0.019,0.00038025,0.000361
11:13:17,30-Sep-21,0.0195,0.019,0.00038025,0.000361
11:13:17,30-Sep-21,0.0195,0.019,0.00038025,0.000361
11:13:17,30-Sep-21,0.0195,0.019,0.00038025,0.000361
11:13:17,30-Sep-21,0.0195,0.019,0.00038025,0.000361
11:13:18,30-Sep-21,0.0195,0.02,0.00038025,0.0004
11:13:18,30-Sep-21,0.0195,0.02,0.00038025,0.0004
11:13:18,30-Sep-21,0.0195,0.02,0.00038025,0.0004
11:13:18,30-Sep-21,0.0195,0.02,0.00038025,0.0004
11:13:18,30-Sep-21,0.0195,0.02,0.00038025,0.0004
11:13:18,30-Sep-21,0.0195,0.02,0.00038025,0.0004
11:13:18,30-Sep-21,0.0195,0.02,0.00038025,0.0004
11:13:18,30-Sep-21,0.0195,0.02,0.00038025,0.0004
11:13:18,30-Sep-21,0.0195,0.02,0.00038025,0.0004
11:13:18,30-Sep-21,0.0195,0.02,0.00038025,0.0004
11:13:18,30-Sep-21,0.0195,0.02,0.00038025,0.0004
11:13:18,30-Sep-21,0.0195,0.02,0.00038025,0.0004
11:13:18,30-Sep-21,0.0195,0.02,0.00038025,0.0004
11:13:18,30-Sep-21,0.0195,0.02,0.00038025,0.0004
11:13:18,30-Sep-21,0.0195,0.02,0.00038025,0.0004
11:13:18,30-Sep-21,0.0195,0.02,0.00038025,0.0004
11:13:18,30-Sep-21,0.0195,0.02,0.00038025,0.0004
11:13:18,30-Sep-21,0.0195,0.02,0.00038025,0.0004
11:13:18,30-Sep-21,0.0195,0.02,0.00038025,0.0004
11:13:18,30-Sep-21,0.0195,0.02,0.00038025,0.0004
11:13:18,30-Sep-21,0.0195,0.02,0.00038025,0.0004
11:13:18,30-Sep-21,0.0195,0.02,0.00038025,0.0004
11:13:18,30-Sep-21,0.0195,0.02,0.00038025,0.0004
11:13:18,30-Sep-21,0.0195,0.02,0.00038025,0.0004
11:13:18,30-Sep-21,0.0195,0.02,0.00038025,0.0004
11:13:18,30-Sep-21,0.0195,0.02,0.00038025,0.0004
11:13:18,30-Sep-21,0.0195,0.02,0.00038025,0.0004
11:13:18,30-Sep-21,0.0195,0.02,0.00038025,0.0004
11:13:18,30-Sep-21,0.0195,0.02,0.00038025,0.0004
11:13:18,30-Sep-21,0.0195,0.02,0.00038025,0.0004
11:13:18,30-Sep-21,0.0195,0.019,0.00038025,0.000361
11:13:18,30-Sep-21,0.0195,0.019,0.00038025,0.000361
11:13:18,30-Sep-21,0.0195,0.019,0.00038025,0.000361
11:13:18,30-Sep-21,0.0195,0.019,0.00038025,0.000361
11:13:18,30-Sep-21,0.0195,0.019,0.00038025,0.000361
11:13:18,30-Sep-21,0.0195,0.019,0.00038025,0.000361
11:13:18,30-Sep-21,0.0195,0.019,0.00038025,0.000361
11:13:18,30-Sep-21,0.0195,0.019,0.00038025,0.000361
11:13:18,30-Sep-21,0.0195,0.019,0.00038025,0.000361
11:13:18,30-Sep-21,0.0195,0.019,0.00038025,0.000361
11:13:18,30-Sep-21,0.0195,0.019,0.00038025,0.000361
11:13:18,30-Sep-21,0.0195,0.019,0.00038025,0.000361
11:13:18,30-Sep-21,0.0195,0.019,0.00038025,0.000361
11:13:18,30-Sep-21,0.0195,0.019,0.00038025,0.000361
11:13:18,30-Sep-21,0.0195,0.019,0.00038025,0.000361
11:13:18,30-Sep-21,0.0195,0.019,0.00038025,0.000361
11:13:18,30-Sep-21,0.0195,0.019,0.00038025,0.000361
11:13:18,30-Sep-21,0.0195,0.02,0.00038025,0.0004
11:13:18,30-Sep-21,0.0195,0.02,0.00038025,0.0004
11:13:18,30-Sep-21,0.0195,0.02,0.00038025,0.0004
11:13:18,30-Sep-21,0.0195,0.02,0.00038025,0.0004
11:13:18,30-Sep-21,0.0195,0.02,0.00038025,0.0004
11:13:18,30-Sep-21,0.0195,0.02,0.00038025,0.0004
11:13:18,30-Sep-21,0.0195,0.02,0.00038025,0.0004
11:13:18,30-Sep-21,0.0195,0.02,0.00038025,0.0004
11:13:18,30-Sep-21,0.0195,0.02,0.00038025,0.0004
11:13:18,30-Sep-21,0.0195,0.02,0.00038025,0.0004
11:13:18,30-Sep-21,0.0195,0.02,0.00038025,0.0004
11:13:18,30-Sep-21,0.0195,0.02,0.00038025,0.0004
11:13:18,30-Sep-21,0.0195,0.02,0.00038025,0.0004
11:13:18,30-Sep-21,0.0195,0.02,0.00038025,0.0004
11:13:18,30-Sep-21,0.0195,0.02,0.00038025,0.0004
11:13:18,30-Sep-21,0.0195,0.02,0.00038025,0.0004
11:13:18,30-Sep-21,0.0195,0.02,0.00038025,0.0004
11:13:18,30-Sep-21,0.0195,0.02,0.00038025,0.0004
11:13:18,30-Sep-21,0.0195,0.02,0.00038025,0.0004
11:13:18,30-Sep-21,0.0195,0.02,0.00038025,0.0004
11:13:18,30-Sep-21,0.0195,0.02,0.00038025,0.0004
11:13:18,30-Sep-21,0.0195,0.02,0.00038025,0.0004
11:13:18,30-Sep-21,0.0195,0.02,0.00038025,0.0004
11:13:18,30-Sep-21,0.0195,0.02,0.00038025,0.0004
11:13:18,30-Sep-21,0.0195,0.02,0.00038025,0.0004
11:13:18,30-Sep-21,0.0195,0.02,0.00038025,0.0004
11:13:18,30-Sep-21,0.0195,0.019,0.00038025,0.000361
11:13:18,30-Sep-21,0.0195,0.019,0.00038025,0.000361
11:13:18,30-Sep-21,0.0195,0.019,0.00038025,0.000361
11:13:18,30-Sep-21,0.0195,0.019,0.00038025,0.000361
11:13:18,30-Sep-21,0.0195,0.019,0.00038025,0.000361
11:13:18,30-Sep-21,0.0195,0.019,0.00038025,0.000361
11:13:18,30-Sep-21,0.0195,0.019,0.00038025,0.000361
11:13:18,30-Sep-21,0.0195,0.019,0.00038025,0.000361
11:13:18,30-Sep-21,0.0195,0.019,0.00038025,0.000361
11:13:18,30-Sep-21,0.0195,0.019,0.00038025,0.000361
11:13:18,30-Sep-21,0.0195,0.019,0.00038025,0.000361
11:13:18,30-Sep-21,0.0195,0.019,0.00038025,0.000361
11:13:18,30-Sep-21,0.0195,0.019,0.00038025,0.000361
11:13:18,30-Sep-21,0.0195,0.019,0.00038025,0.000361
11:13:18,30-Sep-21,0.0195,0.019,0.00038025,0.000361
11:13:18,30-Sep-21,0.0195,0.019,0.00038025,0.000361
11:13:18,30-Sep-21,0.0195,0.019,0.00038025,0.000361
11:13:18,30-Sep-21,0.0195,0.019,0.00038025,0.000361
11:13:18,30-Sep-21,0.0195,0.019,0.00038025,0.000361
11:13:18,30-Sep-21,0.0195,0.019,0.00038025,0.000361
11:13:18,30-Sep-21,0.0195,0.019,0.00038025,0.000361
11:13:18,30-Sep-21,0.0195,0.019,0.00038025,0.000361
11:13:18,30-Sep-21,0.0195,0.019,0.00038025,0.000361
11:13:18,30-Sep-21,0.0195,0.019,0.00038025,0.000361
11:13:18,30-Sep-21,0.0195,0.019,0.00038025,0.000361
11:13:18,30-Sep-21,0.0195,0.019,0.00038025,0.000361
11:13:18,30-Sep-21,0.0195,0.019,0.00038025,0.000361
11:13:18,30-Sep-21,0.0195,0.019,0.00038025,0.000361
11:13:18,30-Sep-21,0.0195,0.019,0.00038025,0.000361
11:13:18,30-Sep-21,0.0145,0.019,0.00021025,0.000361
11:13:18,30-Sep-21,0.0145,0.019,0.00021025,0.000361
11:13:18,30-Sep-21,0.0145,0.019,0.00021025,0.000361
11:13:18,30-Sep-21,0.0145,0.019,0.00021025,0.000361
11:13:18,30-Sep-21,0.0195,0.019,0.00038025,0.000361
11:13:18,30-Sep-21,0.0195,0.019,0.00038025,0.000361
11:13:18,30-Sep-21,0.0195,0.019,0.00038025,0.000361
11:13:18,30-Sep-21,0.0195,0.019,0.00038025,0.000361
11:13:18,30-Sep-21,0.0195,0.019,0.00038025,0.000361
11:13:18,30-Sep-21,0.0195,0.019,0.00038025,0.000361
11:13:18,30-Sep-21,0.0195,0.019,0.00038025,0.000361
11:13:18,30-Sep-21,0.0195,0.019,0.00038025,0.000361
11:13:18,30-Sep-21,0.0195,0.019,0.00038025,0.000361
11:13:18,30-Sep-21,0.0195,0.019,0.00038025,0.000361
11:13:18,30-Sep-21,0.0195,0.019,0.00038025,0.000361
11:13:18,30-Sep-21,0.0195,0.019,0.00038025,0.000361
11:13:18,30-Sep-21,0.0195,0.019,0.00038025,0.000361
11:13:18,30-Sep-21,0.0195,0.019,0.00038025,0.000361
11:13:18,30-Sep-21,0.0195,0.019,0.00038025,0.000361
11:13:18,30-Sep-21,0.0195,0.019,0.00038025,0.000361
11:13:18,30-Sep-21,0.0195,0.019,0.00038025,0.000361
11:13:18,30-Sep-21,0.0195,0.019,0.00038025,0.000361
11:13:18,30-Sep-21,0.0195,0.019,0.00038025,0.000361
11:13:18,30-Sep-21,0.0195,0.019,0.00038025,0.000361
11:13:18,30-Sep-21,0.0195,0.019,0.00038025,0.000361
11:13:18,30-Sep-21,0.0195,0.019,0.00038025,0.000361
11:13:18,30-Sep-21,0.0195,0.019,0.00038025,0.000361
11:13:18,30-Sep-21,0.0195,0.019,0.00038025,0.000361
11:13:18,30-Sep-21,0.0195,0.019,0.00038025,0.000361
11:13:18,30-Sep-21,0.0195,0.019,0.00038025,0.000361
11:13:18,30-Sep-21,0.0195,0.019,0.00038025,0.000361
11:13:18,30-Sep-21,0.0195,0.019,0.00038025,0.000361
11:13:18,30-Sep-21,0.0195,0.019,0.00038025,0.000361
11:13:18,30-Sep-21,0.0195,0.019,0.00038025,0.000361
11:13:18,30-Sep-21,0.0195,0.018,0.00038025,0.000324
11:13:18,30-Sep-21,0.0195,0.018,0.00038025,0.000324
11:13:18,30-Sep-21,0.0195,0.018,0.00038025,0.000324
11:13:18,30-Sep-21,0.0195,0.018,0.00038025,0.000324
11:13:18,30-Sep-21,0.0195,0.018,0.00038025,0.000324
11:13:18,30-Sep-21,0.0195,0.018,0.00038025,0.000324
11:13:18,30-Sep-21,0.0195,0.018,0.00038025,0.000324
11:13:18,30-Sep-21,0.0195,0.018,0.00038025,0.000324
11:13:18,30-Sep-21,0.0195,0.018,0.00038025,0.000324
11:13:18,30-Sep-21,0.0145,0.018,0.00021025,0.000324
11:13:18,30-Sep-21,0.0145,0.018,0.00021025,0.000324
11:13:18,30-Sep-21,0.0145,0.017,0.00021025,0.000289
11:13:18,30-Sep-21,0.0145,0.017,0.00021025,0.000289
11:13:18,30-Sep-21,0.0145,0.017,0.00021025,0.000289
11:13:18,30-Sep-21,0.0145,0.017,0.00021025,0.000289
11:13:18,30-Sep-21,0.0145,0.017,0.00021025,0.000289
11:13:18,30-Sep-21,0.0145,0.017,0.00021025,0.000289
11:13:18,30-Sep-21,0.0145,0.017,0.00021025,0.000289
11:13:18,30-Sep-21,0.0145,0.017,0.00021025,0.000289
11:13:18,30-Sep-21,0.0195,0.017,0.00038025,0.000289
11:13:18,30-Sep-21,0.0195,0.017,0.00038025,0.000289
11:13:18,30-Sep-21,0.0195,0.017,0.00038025,0.000289
11:13:18,30-Sep-21,0.0195,0.017,0.00038025,0.000289
11:13:18,30-Sep-21,0.0195,0.017,0.00038025,0.000289
11:13:18,30-Sep-21,0.0195,0.017,0.00038025,0.000289
11:13:18,30-Sep-21,0.0195,0.018,0.00038025,0.000324
11:13:18,30-Sep-21,0.0195,0.018,0.00038025,0.000324
11:13:18,30-Sep-21,0.0195,0.018,0.00038025,0.000324
11:13:18,30-Sep-21,0.0145,0.018,0.00021025,0.000324
11:13:18,30-Sep-21,0.0145,0.018,0.00021025,0.000324
11:13:19,30-Sep-21,0.0145,0.018,0.00021025,0.000324
11:13:19,30-Sep-21,0.0145,0.018,0.00021025,0.000324
11:13:19,30-Sep-21,0.0195,0.018,0.00038025,0.000324
11:13:19,30-Sep-21,0.0195,0.018,0.00038025,0.000324
11:13:19,30-Sep-21,0.0195,0.018,0.00038025,0.000324
11:13:19,30-Sep-21,0.0195,0.019,0.00038025,0.000361
11:13:19,30-Sep-21,0.0195,0.019,0.00038025,0.000361
11:13:19,30-Sep-21,0.0195,0.019,0.00038025,0.000361
11:13:19,30-Sep-21,0.0195,0.019,0.00038025,0.000361
11:13:19,30-Sep-21,0.0195,0.019,0.00038025,0.000361
11:13:19,30-Sep-21,0.0195,0.019,0.00038025,0.000361
11:13:19,30-Sep-21,0.0195,0.019,0.00038025,0.000361
11:13:19,30-Sep-21,0.0195,0.019,0.00038025,0.000361
11:13:19,30-Sep-21,0.0195,0.02,0.00038025,0.0004
11:13:19,30-Sep-21,0.0195,0.02,0.00038025,0.0004
11:13:19,30-Sep-21,0.0195,0.02,0.00038025,0.0004
11:13:19,30-Sep-21,0.0195,0.02,0.00038025,0.0004
11:13:19,30-Sep-21,0.0195,0.02,0.00038025,0.0004
11:13:19,30-Sep-21,0.0195,0.02,0.00038025,0.0004
11:13:19,30-Sep-21,0.0195,0.02,0.00038025,0.0004
11:13:19,30-Sep-21,0.0195,0.02,0.00038025,0.0004
11:13:19,30-Sep-21,0.0195,0.02,0.00038025,0.0004
11:13:19,30-Sep-21,0.0195,0.02,0.00038025,0.0004
11:13:19,30-Sep-21,0.0195,0.02,0.00038025,0.0004
11:13:19,30-Sep-21,0.0195,0.02,0.00038025,0.0004
11:13:19,30-Sep-21,0.0195,0.02,0.00038025,0.0004
11:13:19,30-Sep-21,0.0195,0.02,0.00038025,0.0004
11:13:19,30-Sep-21,0.0195,0.02,0.00038025,0.0004
11:13:19,30-Sep-21,0.0195,0.02,0.00038025,0.0004
11:13:19,30-Sep-21,0.0195,0.02,0.00038025,0.0004
11:13:19,30-Sep-21,0.0195,0.02,0.00038025,0.0004
11:13:19,30-Sep-21,0.0195,0.019,0.00038025,0.000361
11:13:19,30-Sep-21,0.0195,0.019,0.00038025,0.000361
11:13:19,30-Sep-21,0.0245,0.019,0.00060025,0.000361
11:13:19,30-Sep-21,0.0245,0.019,0.00060025,0.000361
11:13:19,30-Sep-21,0.0195,0.019,0.00038025,0.000361
11:13:19,30-Sep-21,0.0195,0.019,0.00038025,0.000361
11:13:19,30-Sep-21,0.0195,0.018,0.00038025,0.000324
11:13:19,30-Sep-21,0.0195,0.018,0.00038025,0.000324
11:13:19,30-Sep-21,0.0195,0.018,0.00038025,0.000324
11:13:19,30-Sep-21,0.0195,0.018,0.00038025,0.000324
11:13:19,30-Sep-21,0.0195,0.018,0.00038025,0.000324
11:13:19,30-Sep-21,0.0195,0.017,0.00038025,0.000289
11:13:19,30-Sep-21,0.0195,0.017,0.00038025,0.000289
11:13:19,30-Sep-21,0.0195,0.017,0.00038025,0.000289
11:13:19,30-Sep-21,0.0195,0.017,0.00038025,0.000289
11:13:19,30-Sep-21,0.0145,0.016,0.00021025,0.000256
11:13:19,30-Sep-21,0.0145,0.016,0.00021025,0.000256
11:13:19,30-Sep-21,0.0145,0.016,0.00021025,0.000256
11:13:19,30-Sep-21,0.0145,0.016,0.00021025,0.000256
11:13:19,30-Sep-21,0.01,0.016,0.0001,0.000256
11:13:19,30-Sep-21,0.01,0.015,0.0001,0.000225
11:13:19,30-Sep-21,0.0145,0.015,0.00021025,0.000225
11:13:19,30-Sep-21,0.01,0.015,0.0001,0.000225
11:13:19,30-Sep-21,0.01,0.015,0.0001,0.000225
11:13:19,30-Sep-21,0.01,0.015,0.0001,0.000225
11:13:19,30-Sep-21,0.01,0.015,0.0001,0.000225
11:13:19,30-Sep-21,0.01,0.015,0.0001,0.000225
11:13:19,30-Sep-21,0.0145,0.015,0.00021025,0.000225
11:13:19,30-Sep-21,0.0145,0.014,0.00021025,0.000196
11:13:19,30-Sep-21,0.0145,0.014,0.00021025,0.000196
11:13:19,30-Sep-21,0.0145,0.014,0.00021025,0.000196
11:13:19,30-Sep-21,0.0145,0.014,0.00021025,0.000196
11:13:19,30-Sep-21,0.0145,0.014,0.00021025,0.000196
11:13:19,30-Sep-21,0.0145,0.014,0.00021025,0.000196
11:13:19,30-Sep-21,0.0145,0.014,0.00021025,0.000196
11:13:19,30-Sep-21,0.0195,0.014,0.00038025,0.000196
11:13:19,30-Sep-21,0.0195,0.014,0.00038025,0.000196
11:13:19,30-Sep-21,0.0195,0.014,0.00038025,0.000196
11:13:19,30-Sep-21,0.0195,0.014,0.00038025,0.000196
11:13:19,30-Sep-21,0.0145,0.014,0.00021025,0.000196
11:13:19,30-Sep-21,0.0145,0.014,0.00021025,0.000196
11:13:19,30-Sep-21,0.0145,0.014,0.00021025,0.000196
11:13:19,30-Sep-21,0.0145,0.014,0.00021025,0.000196
11:13:19,30-Sep-21,0.0145,0.014,0.00021025,0.000196
11:13:19,30-Sep-21,0.0145,0.014,0.00021025,0.000196
11:13:19,30-Sep-21,0.0145,0.014,0.00021025,0.000196
11:13:19,30-Sep-21,0.0145,0.014,0.00021025,0.000196
11:13:19,30-Sep-21,0.0145,0.014,0.00021025,0.000196
11:13:19,30-Sep-21,0.0145,0.014,0.00021025,0.000196
11:13:19,30-Sep-21,0.0145,0.014,0.00021025,0.000196
11:13:19,30-Sep-21,0.0145,0.014,0.00021025,0.000196
11:13:19,30-Sep-21,0.0145,0.014,0.00021025,0.000196
11:13:19,30-Sep-21,0.0145,0.014,0.00021025,0.000196
11:13:19,30-Sep-21,0.0145,0.014,0.00021025,0.000196
11:13:19,30-Sep-21,0.0145,0.014,0.00021025,0.000196
11:13:19,30-Sep-21,0.0145,0.014,0.00021025,0.000196
11:13:19,30-Sep-21,0.0145,0.014,0.00021025,0.000196
11:13:19,30-Sep-21,0.01,0.014,0.0001,0.000196
11:13:19,30-Sep-21,0.01,0.014,0.0001,0.000196
11:13:19,30-Sep-21,0.01,0.014,0.0001,0.000196
11:13:19,30-Sep-21,0.01,0.014,0.0001,0.000196
11:13:19,30-Sep-21,0.0145,0.014,0.00021025,0.000196
11:13:19,30-Sep-21,0.0145,0.014,0.00021025,0.000196
11:13:19,30-Sep-21,0.0145,0.014,0.00021025,0.000196
11:13:19,30-Sep-21,0.0145,0.014,0.00021025,0.000196
11:13:19,30-Sep-21,0.0145,0.014,0.00021025,0.000196
11:13:19,30-Sep-21,0.0145,0.014,0.00021025,0.000196
11:13:19,30-Sep-21,0.0145,0.014,0.00021025,0.000196
11:13:19,30-Sep-21,0.0145,0.014,0.00021025,0.000196
11:13:19,30-Sep-21,0.0145,0.014,0.00021025,0.000196
11:13:19,30-Sep-21,0.0145,0.014,0.00021025,0.000196
11:13:19,30-Sep-21,0.0145,0.014,0.00021025,0.000196
11:13:19,30-Sep-21,0.0145,0.014,0.00021025,0.000196
11:13:20,30-Sep-21,0.0145,0.014,0.00021025,0.000196
11:13:20,30-Sep-21,0.0145,0.014,0.00021025,0.000196
11:13:20,30-Sep-21,0.0145,0.014,0.00021025,0.000196
11:13:20,30-Sep-21,0.0145,0.014,0.00021025,0.000196
11:13:20,30-Sep-21,0.0145,0.014,0.00021025,0.000196
11:13:20,30-Sep-21,0.0145,0.014,0.00021025,0.000196
11:13:20,30-Sep-21,0.0145,0.014,0.00021025,0.000196
11:13:20,30-Sep-21,0.0145,0.014,0.00021025,0.000196
11:13:20,30-Sep-21,0.0145,0.014,0.00021025,0.000196
11:13:20,30-Sep-21,0.0145,0.014,0.00021025,0.000196
11:13:20,30-Sep-21,0.0145,0.014,0.00021025,0.000196
11:13:20,30-Sep-21,0.0145,0.014,0.00021025,0.000196
11:13:20,30-Sep-21,0.0145,0.014,0.00021025,0.000196
11:13:20,30-Sep-21,0.0145,0.014,0.00021025,0.000196
11:13:20,30-Sep-21,0.0145,0.014,0.00021025,0.000196
11:13:20,30-Sep-21,0.0145,0.015,0.00021025,0.000225
11:13:20,30-Sep-21,0.0145,0.015,0.00021025,0.000225
11:13:20,30-Sep-21,0.0145,0.015,0.00021025,0.000225
11:13:20,30-Sep-21,0.0145,0.015,0.00021025,0.000225
11:13:20,30-Sep-21,0.0145,0.015,0.00021025,0.000225
11:13:20,30-Sep-21,0.0145,0.015,0.00021025,0.000225
11:13:20,30-Sep-21,0.0145,0.015,0.00021025,0.000225
11:13:20,30-Sep-21,0.0145,0.015,0.00021025,0.000225
11:13:20,30-Sep-21,0.0145,0.015,0.00021025,0.000225
11:13:20,30-Sep-21,0.0145,0.015,0.00021025,0.000225
11:13:20,30-Sep-21,0.0145,0.015,0.00021025,0.000225
11:13:20,30-Sep-21,0.0145,0.015,0.00021025,0.000225
11:13:20,30-Sep-21,0.0145,0.015,0.00021025,0.000225
11:13:20,30-Sep-21,0.0145,0.015,0.00021025,0.000225
11:13:20,30-Sep-21,0.0145,0.015,0.00021025,0.000225
11:13:20,30-Sep-21,0.0145,0.015,0.00021025,0.000225
11:13:20,30-Sep-21,0.0145,0.015,0.00021025,0.000225
11:13:20,30-Sep-21,0.0145,0.015,0.00021025,0.000225
11:13:20,30-Sep-21,0.0145,0.015,0.00021025,0.000225
11:13:20,30-Sep-21,0.0145,0.015,0.00021025,0.000225
11:13:20,30-Sep-21,0.0145,0.015,0.00021025,0.000225
11:13:20,30-Sep-21,0.0145,0.015,0.00021025,0.000225
11:13:20,30-Sep-21,0.0145,0.015,0.00021025,0.000225
11:13:20,30-Sep-21,0.0145,0.015,0.00021025,0.000225
11:13:20,30-Sep-21,0.0145,0.015,0.00021025,0.000225
11:13:20,30-Sep-21,0.0145,0.015,0.00021025,0.000225
11:13:20,30-Sep-21,0.0145,0.015,0.00021025,0.000225
11:13:20,30-Sep-21,0.0145,0.015,0.00021025,0.000225
11:13:20,30-Sep-21,0.0145,0.015,0.00021025,0.000225
11:13:20,30-Sep-21,0.0145,0.015,0.00021025,0.000225
11:13:20,30-Sep-21,0.0195,0.015,0.00038025,0.000225
11:13:20,30-Sep-21,0.0195,0.015,0.00038025,0.000225
11:13:20,30-Sep-21,0.0145,0.015,0.00021025,0.000225
11:13:20,30-Sep-21,0.0145,0.015,0.00021025,0.000225
11:13:20,30-Sep-21,0.0195,0.015,0.00038025,0.000225
11:13:20,30-Sep-21,0.0195,0.015,0.00038025,0.000225
11:13:20,30-Sep-21,0.0145,0.015,0.00021025,0.000225
11:13:20,30-Sep-21,0.0145,0.014,0.00021025,0.000196
11:13:20,30-Sep-21,0.0145,0.014,0.00021025,0.000196
11:13:20,30-Sep-21,0.0145,0.014,0.00021025,0.000196
11:13:20,30-Sep-21,0.0145,0.014,0.00021025,0.000196
11:13:20,30-Sep-21,0.0145,0.014,0.00021025,0.000196
11:13:20,30-Sep-21,0.0145,0.014,0.00021025,0.000196
11:13:20,30-Sep-21,0.0145,0.014,0.00021025,0.000196
11:13:20,30-Sep-21,0.0145,0.014,0.00021025,0.000196
11:13:20,30-Sep-21,0.01,0.014,0.0001,0.000196
11:13:20,30-Sep-21,0.01,0.014,0.0001,0.000196
11:13:20,30-Sep-21,0.01,0.014,0.0001,0.000196
11:13:20,30-Sep-21,0.01,0.014,0.0001,0.000196
11:13:20,30-Sep-21,0.01,0.014,0.0001,0.000196
11:13:20,30-Sep-21,0.01,0.014,0.0001,0.000196
11:13:20,30-Sep-21,0.0145,0.014,0.00021025,0.000196
11:13:20,30-Sep-21,0.0145,0.014,0.00021025,0.000196
11:13:20,30-Sep-21,0.0145,0.014,0.00021025,0.000196
11:13:20,30-Sep-21,0.0145,0.014,0.00021025,0.000196
11:13:20,30-Sep-21,0.0145,0.014,0.00021025,0.000196
11:13:20,30-Sep-21,0.0145,0.014,0.00021025,0.000196
11:13:20,30-Sep-21,0.0145,0.014,0.00021025,0.000196
11:13:20,30-Sep-21,0.0145,0.014,0.00021025,0.000196
11:13:20,30-Sep-21,0.0145,0.014,0.00021025,0.000196
11:13:20,30-Sep-21,0.0145,0.014,0.00021025,0.000196
11:13:20,30-Sep-21,0.0145,0.014,0.00021025,0.000196
11:13:20,30-Sep-21,0.0145,0.014,0.00021025,0.000196
11:13:20,30-Sep-21,0.0145,0.014,0.00021025,0.000196
11:13:20,30-Sep-21,0.0145,0.014,0.00021025,0.000196
11:13:20,30-Sep-21,0.0145,0.014,0.00021025,0.000196
11:13:20,30-Sep-21,0.0145,0.014,0.00021025,0.000196
11:13:20,30-Sep-21,0.0145,0.014,0.00021025,0.000196
11:13:20,30-Sep-21,0.0145,0.014,0.00021025,0.000196
11:13:20,30-Sep-21,0.0145,0.014,0.00021025,0.000196
11:13:20,30-Sep-21,0.0145,0.014,0.00021025,0.000196
11:13:20,30-Sep-21,0.0145,0.014,0.00021025,0.000196
11:13:20,30-Sep-21,0.0145,0.014,0.00021025,0.000196
11:13:20,30-Sep-21,0.0145,0.014,0.00021025,0.000196
11:13:20,30-Sep-21,0.0145,0.014,0.00021025,0.000196
11:13:20,30-Sep-21,0.0145,0.014,0.00021025,0.000196
11:13:20,30-Sep-21,0.0145,0.014,0.00021025,0.000196
11:13:20,30-Sep-21,0.0145,0.014,0.00021025,0.000196
11:13:20,30-Sep-21,0.0145,0.014,0.00021025,0.000196
11:13:20,30-Sep-21,0.0145,0.014,0.00021025,0.000196
11:13:20,30-Sep-21,0.0145,0.015,0.00021025,0.000225
11:13:20,30-Sep-21,0.0145,0.015,0.00021025,0.000225
11:13:20,30-Sep-21,0.0145,0.015,0.00021025,0.000225
11:13:20,30-Sep-21,0.0145,0.015,0.00021025,0.000225
11:13:20,30-Sep-21,0.0145,0.015,0.00021025,0.000225
11:13:20,30-Sep-21,0.0145,0.015,0.00021025,0.000225
11:13:20,30-Sep-21,0.0145,0.015,0.00021025,0.000225
11:13:20,30-Sep-21,0.0145,0.015,0.00021025,0.000225
11:13:20,30-Sep-21,0.0145,0.015,0.00021025,0.000225
11:13:20,30-Sep-21,0.0145,0.015,0.00021025,0.000225
11:13:20,30-Sep-21,0.0145,0.015,0.00021025,0.000225
11:13:20,30-Sep-21,0.0145,0.015,0.00021025,0.000225
11:13:20,30-Sep-21,0.0145,0.015,0.00021025,0.000225
11:13:20,30-Sep-21,0.0145,0.015,0.00021025,0.000225
11:13:21,30-Sep-21,0.0145,0.015,0.00021025,0.000225
11:13:21,30-Sep-21,0.0145,0.015,0.00021025,0.000225
11:13:21,30-Sep-21,0.0145,0.015,0.00021025,0.000225
11:13:21,30-Sep-21,0.0145,0.015,0.00021025,0.000225
11:13:21,30-Sep-21,0.0145,0.015,0.00021025,0.000225
11:13:21,30-Sep-21,0.0145,0.015,0.00021025,0.000225
11:13:21,30-Sep-21,0.0145,0.015,0.00021025,0.000225
11:13:21,30-Sep-21,0.0145,0.015,0.00021025,0.000225
11:13:21,30-Sep-21,0.0145,0.015,0.00021025,0.000225
11:13:21,30-Sep-21,0.0145,0.015,0.00021025,0.000225
11:13:21,30-Sep-21,0.0145,0.015,0.00021025,0.000225
11:13:21,30-Sep-21,0.0145,0.015,0.00021025,0.000225
11:13:21,30-Sep-21,0.0145,0.015,0.00021025,0.000225
11:13:21,30-Sep-21,0.0145,0.015,0.00021025,0.000225
11:13:21,30-Sep-21,0.0145,0.015,0.00021025,0.000225
11:13:21,30-Sep-21,0.0145,0.015,0.00021025,0.000225
11:13:21,30-Sep-21,0.0145,0.015,0.00021025,0.000225
11:13:21,30-Sep-21,0.0145,0.015,0.00021025,0.000225
11:13:21,30-Sep-21,0.0145,0.015,0.00021025,0.000225
11:13:21,30-Sep-21,0.0145,0.015,0.00021025,0.000225
11:13:21,30-Sep-21,0.0145,0.015,0.00021025,0.000225
11:13:21,30-Sep-21,0.0145,0.015,0.00021025,0.000225
11:13:21,30-Sep-21,0.0145,0.015,0.00021025,0.000225
11:13:21,30-Sep-21,0.0145,0.015,0.00021025,0.000225
11:13:21,30-Sep-21,0.0145,0.015,0.00021025,0.000225
11:13:21,30-Sep-21,0.0145,0.015,0.00021025,0.000225
11:13:21,30-Sep-21,0.0145,0.015,0.00021025,0.000225
11:13:21,30-Sep-21,0.0145,0.015,0.00021025,0.000225
11:13:21,30-Sep-21,0.0145,0.015,0.00021025,0.000225
11:13:21,30-Sep-21,0.0145,0.014,0.00021025,0.000196
11:13:21,30-Sep-21,0.0145,0.014,0.00021025,0.000196
11:13:21,30-Sep-21,0.0145,0.014,0.00021025,0.000196
11:13:21,30-Sep-21,0.0145,0.014,0.00021025,0.000196
11:13:21,30-Sep-21,0.0145,0.014,0.00021025,0.000196
11:13:21,30-Sep-21,0.0145,0.014,0.00021025,0.000196
11:13:21,30-Sep-21,0.0145,0.014,0.00021025,0.000196
11:13:21,30-Sep-21,0.0145,0.014,0.00021025,0.000196
11:13:21,30-Sep-21,0.0145,0.014,0.00021025,0.000196
11:13:21,30-Sep-21,0.0145,0.014,0.00021025,0.000196
11:13:21,30-Sep-21,0.0145,0.014,0.00021025,0.000196
11:13:21,30-Sep-21,0.0145,0.014,0.00021025,0.000196
11:13:21,30-Sep-21,0.0145,0.014,0.00021025,0.000196
11:13:21,30-Sep-21,0.0145,0.014,0.00021025,0.000196
11:13:21,30-Sep-21,0.0145,0.014,0.00021025,0.000196
11:13:21,30-Sep-21,0.0145,0.014,0.00021025,0.000196
11:13:21,30-Sep-21,0.0145,0.014,0.00021025,0.000196
11:13:21,30-Sep-21,0.0145,0.014,0.00021025,0.000196
11:13:21,30-Sep-21,0.0145,0.014,0.00021025,0.000196
11:13:21,30-Sep-21,0.0145,0.014,0.00021025,0.000196
11:13:21,30-Sep-21,0.0145,0.014,0.00021025,0.000196
11:13:21,30-Sep-21,0.0145,0.014,0.00021025,0.000196
11:13:21,30-Sep-21,0.0145,0.014,0.00021025,0.000196
11:13:21,30-Sep-21,0.0145,0.014,0.00021025,0.000196
11:13:21,30-Sep-21,0.0145,0.014,0.00021025,0.000196
11:13:21,30-Sep-21,0.0145,0.014,0.00021025,0.000196
11:13:21,30-Sep-21,0.0145,0.014,0.00021025,0.000196
11:13:21,30-Sep-21,0.0145,0.014,0.00021025,0.000196
11:13:21,30-Sep-21,0.01,0.014,0.0001,0.000196
11:13:21,30-Sep-21,0.01,0.014,0.0001,0.000196
11:13:21,30-Sep-21,0.01,0.014,0.0001,0.000196
11:13:21,30-Sep-21,0.01,0.014,0.0001,0.000196
11:13:21,30-Sep-21,0.01,0.014,0.0001,0.000196
11:13:21,30-Sep-21,0.0145,0.014,0.00021025,0.000196
11:13:21,30-Sep-21,0.0145,0.014,0.00021025,0.000196
11:13:21,30-Sep-21,0.0145,0.014,0.00021025,0.000196
11:13:21,30-Sep-21,0.0145,0.014,0.00021025,0.000196
11:13:21,30-Sep-21,0.0145,0.014,0.00021025,0.000196
11:13:21,30-Sep-21,0.0145,0.014,0.00021025,0.000196
11:13:21,30-Sep-21,0.0145,0.014,0.00021025,0.000196
11:13:21,30-Sep-21,0.0145,0.014,0.00021025,0.000196
11:13:21,30-Sep-21,0.0145,0.014,0.00021025,0.000196
11:13:21,30-Sep-21,0.0145,0.014,0.00021025,0.000196
11:13:21,30-Sep-21,0.0145,0.014,0.00021025,0.000196
11:13:21,30-Sep-21,0.0145,0.014,0.00021025,0.000196
11:13:21,30-Sep-21,0.0145,0.014,0.00021025,0.000196
11:13:21,30-Sep-21,0.0145,0.014,0.00021025,0.000196
11:13:21,30-Sep-21,0.0145,0.014,0.00021025,0.000196
11:13:21,30-Sep-21,0.0145,0.014,0.00021025,0.000196
11:13:21,30-Sep-21,0.0145,0.014,0.00021025,0.000196
11:13:21,30-Sep-21,0.0145,0.014,0.00021025,0.000196
11:13:21,30-Sep-21,0.0145,0.014,0.00021025,0.000196
11:13:21,30-Sep-21,0.0145,0.013,0.00021025,0.000169
11:13:21,30-Sep-21,0.0145,0.013,0.00021025,0.000169
11:13:21,30-Sep-21,0.0145,0.013,0.00021025,0.000169
11:13:21,30-Sep-21,0.0145,0.013,0.00021025,0.000169
11:13:21,30-Sep-21,0.0145,0.013,0.00021025,0.000169
11:13:21,30-Sep-21,0.01,0.013,0.0001,0.000169
11:13:21,30-Sep-21,0.01,0.013,0.0001,0.000169
11:13:21,30-Sep-21,0.01,0.013,0.0001,0.000169
11:13:21,30-Sep-21,0.01,0.013,0.0001,0.000169
11:13:21,30-Sep-21,0.01,0.013,0.0001,0.000169
11:13:21,30-Sep-21,0.0145,0.013,0.00021025,0.000169
11:13:21,30-Sep-21,0.0145,0.013,0.00021025,0.000169
11:13:21,30-Sep-21,0.0145,0.013,0.00021025,0.000169
11:13:21,30-Sep-21,0.0145,0.013,0.00021025,0.000169
11:13:21,30-Sep-21,0.0145,0.013,0.00021025,0.000169
11:13:21,30-Sep-21,0.0145,0.013,0.00021025,0.000169
11:13:21,30-Sep-21,0.0145,0.013,0.00021025,0.000169
11:13:21,30-Sep-21,0.0145,0.013,0.00021025,0.000169
11:13:21,30-Sep-21,0.01,0.013,0.0001,0.000169
11:13:21,30-Sep-21,0.01,0.013,0.0001,0.000169
11:13:21,30-Sep-21,0.01,0.013,0.0001,0.000169
11:13:21,30-Sep-21,0.0145,0.013,0.00021025,0.000169
11:13:21,30-Sep-21,0.0145,0.013,0.00021025,0.000169
11:13:21,30-Sep-21,0.0145,0.013,0.00021025,0.000169
11:13:21,30-Sep-21,0.0145,0.013,0.00021025,0.000169
11:13:21,30-Sep-21,0.0145,0.013,0.00021025,0.000169
11:13:21,30-Sep-21,0.0145,0.013,0.00021025,0.000169
11:13:21,30-Sep-21,0.0145,0.013,0.00021025,0.000169
11:13:21,30-Sep-21,0.01,0.013,0.0001,0.000169
11:13:21,30-Sep-21,0.01,0.013,0.0001,0.000169
11:13:21,30-Sep-21,0.0145,0.013,0.00021025,0.000169
11:13:21,30-Sep-21,0.0145,0.013,0.00021025,0.000169
11:13:21,30-Sep-21,0.0145,0.014,0.00021025,0.000196
11:13:21,30-Sep-21,0.0145,0.014,0.00021025,0.000196
11:13:21,30-Sep-21,0.0145,0.014,0.00021025,0.000196
11:13:21,30-Sep-21,0.0145,0.014,0.00021025,0.000196
11:13:21,30-Sep-21,0.01,0.014,0.0001,0.000196
11:13:22,30-Sep-21,0.01,0.014,0.0001,0.000196
11:13:22,30-Sep-21,0.0145,0.014,0.00021025,0.000196
11:13:22,30-Sep-21,0.0145,0.014,0.00021025,0.000196
11:13:22,30-Sep-21,0.0145,0.014,0.00021025,0.000196
11:13:22,30-Sep-21,0.0145,0.014,0.00021025,0.000196
11:13:22,30-Sep-21,0.0145,0.014,0.00021025,0.000196
11:13:22,30-Sep-21,0.0145,0.014,0.00021025,0.000196
11:13:22,30-Sep-21,0.0145,0.014,0.00021025,0.000196
11:13:22,30-Sep-21,0.01,0.014,0.0001,0.000196
11:13:22,30-Sep-21,0.0145,0.014,0.00021025,0.000196
11:13:22,30-Sep-21,0.0145,0.014,0.00021025,0.000196
11:13:22,30-Sep-21,0.0145,0.014,0.00021025,0.000196
11:13:22,30-Sep-21,0.0145,0.014,0.00021025,0.000196
11:13:22,30-Sep-21,0.0145,0.014,0.00021025,0.000196
11:13:22,30-Sep-21,0.0145,0.014,0.00021025,0.000196
11:13:22,30-Sep-21,0.0145,0.014,0.00021025,0.000196
11:13:22,30-Sep-21,0.0145,0.014,0.00021025,0.000196
11:13:22,30-Sep-21,0.0145,0.014,0.00021025,0.000196
11:13:22,30-Sep-21,0.0145,0.014,0.00021025,0.000196
11:13:22,30-Sep-21,0.0145,0.014,0.00021025,0.000196
11:13:22,30-Sep-21,0.0145,0.014,0.00021025,0.000196
11:13:22,30-Sep-21,0.0145,0.014,0.00021025,0.000196
11:13:22,30-Sep-21,0.0145,0.014,0.00021025,0.000196
11:13:22,30-Sep-21,0.0145,0.014,0.00021025,0.000196
11:13:22,30-Sep-21,0.0145,0.014,0.00021025,0.000196
11:13:22,30-Sep-21,0.0145,0.014,0.00021025,0.000196
11:13:22,30-Sep-21,0.0145,0.014,0.00021025,0.000196
11:13:22,30-Sep-21,0.0145,0.014,0.00021025,0.000196
11:13:22,30-Sep-21,0.0145,0.014,0.00021025,0.000196
11:13:22,30-Sep-21,0.0145,0.013,0.00021025,0.000169
11:13:22,30-Sep-21,0.0145,0.013,0.00021025,0.000169
11:13:22,30-Sep-21,0.0145,0.013,0.00021025,0.000169
11:13:22,30-Sep-21,0.0145,0.013,0.00021025,0.000169
11:13:22,30-Sep-21,0.0145,0.013,0.00021025,0.000169
11:13:22,30-Sep-21,0.0145,0.013,0.00021025,0.000169
11:13:22,30-Sep-21,0.0145,0.013,0.00021025,0.000169
11:13:22,30-Sep-21,0.0145,0.013,0.00021025,0.000169
11:13:22,30-Sep-21,0.0145,0.013,0.00021025,0.000169
11:13:22,30-Sep-21,0.01,0.013,0.0001,0.000169
11:13:22,30-Sep-21,0.01,0.013,0.0001,0.000169
11:13:22,30-Sep-21,0.01,0.013,0.0001,0.000169
11:13:22,30-Sep-21,0.01,0.012,0.0001,0.000144
11:13:22,30-Sep-21,0.01,0.012,0.0001,0.000144
11:13:22,30-Sep-21,0.01,0.012,0.0001,0.000144
11:13:22,30-Sep-21,0.01,0.012,0.0001,0.000144
11:13:22,30-Sep-21,0.01,0.012,0.0001,0.000144
11:13:22,30-Sep-21,0.01,0.012,0.0001,0.000144
11:13:22,30-Sep-21,0.01,0.012,0.0001,0.000144
11:13:22,30-Sep-21,0.01,0.012,0.0001,0.000144
11:13:22,30-Sep-21,0.01,0.013,0.0001,0.000169
11:13:22,30-Sep-21,0.0145,0.013,0.00021025,0.000169
11:13:22,30-Sep-21,0.0145,0.013,0.00021025,0.000169
11:13:22,30-Sep-21,0.0145,0.013,0.00021025,0.000169
11:13:22,30-Sep-21,0.01,0.013,0.0001,0.000169
11:13:22,30-Sep-21,0.01,0.013,0.0001,0.000169
11:13:22,30-Sep-21,0.0145,0.013,0.00021025,0.000169
11:13:22,30-Sep-21,0.0145,0.013,0.00021025,0.000169
11:13:22,30-Sep-21,0.0145,0.013,0.00021025,0.000169
11:13:22,30-Sep-21,0.0145,0.013,0.00021025,0.000169
11:13:22,30-Sep-21,0.0145,0.013,0.00021025,0.000169
11:13:22,30-Sep-21,0.0145,0.013,0.00021025,0.000169
11:13:22,30-Sep-21,0.0145,0.014,0.00021025,0.000196
11:13:22,30-Sep-21,0.0145,0.014,0.00021025,0.000196
11:13:22,30-Sep-21,0.0145,0.014,0.00021025,0.000196
11:13:22,30-Sep-21,0.0145,0.014,0.00021025,0.000196
11:13:22,30-Sep-21,0.0145,0.014,0.00021025,0.000196
11:13:22,30-Sep-21,0.0145,0.014,0.00021025,0.000196
11:13:22,30-Sep-21,0.0145,0.014,0.00021025,0.000196
11:13:22,30-Sep-21,0.0145,0.014,0.00021025,0.000196
11:13:22,30-Sep-21,0.0145,0.014,0.00021025,0.000196
11:13:22,30-Sep-21,0.0145,0.014,0.00021025,0.000196
11:13:22,30-Sep-21,0.0145,0.014,0.00021025,0.000196
11:13:22,30-Sep-21,0.0145,0.014,0.00021025,0.000196
11:13:22,30-Sep-21,0.0145,0.014,0.00021025,0.000196
11:13:22,30-Sep-21,0.0145,0.014,0.00021025,0.000196
11:13:22,30-Sep-21,0.0145,0.014,0.00021025,0.000196
11:13:22,30-Sep-21,0.0145,0.014,0.00021025,0.000196
11:13:22,30-Sep-21,0.0145,0.014,0.00021025,0.000196
11:13:22,30-Sep-21,0.0145,0.014,0.00021025,0.000196
11:13:22,30-Sep-21,0.0145,0.014,0.00021025,0.000196
11:13:22,30-Sep-21,0.0145,0.014,0.00021025,0.000196
11:13:22,30-Sep-21,0.0145,0.014,0.00021025,0.000196
11:13:22,30-Sep-21,0.0145,0.014,0.00021025,0.000196
11:13:22,30-Sep-21,0.0145,0.014,0.00021025,0.000196
11:13:22,30-Sep-21,0.0145,0.014,0.00021025,0.000196
11:13:22,30-Sep-21,0.0145,0.014,0.00021025,0.000196
11:13:22,30-Sep-21,0.0145,0.014,0.00021025,0.000196
11:13:22,30-Sep-21,0.0145,0.014,0.00021025,0.000196
11:13:22,30-Sep-21,0.0145,0.014,0.00021025,0.000196
11:13:22,30-Sep-21,0.01,0.014,0.0001,0.000196
11:13:22,30-Sep-21,0.0145,0.014,0.00021025,0.000196
11:13:22,30-Sep-21,0.0145,0.014,0.00021025,0.000196
11:13:22,30-Sep-21,0.0145,0.014,0.00021025,0.000196
11:13:22,30-Sep-21,0.01,0.013,0.0001,0.000169
11:13:22,30-Sep-21,0.01,0.013,0.0001,0.000169
11:13:22,30-Sep-21,0.0145,0.013,0.00021025,0.000169
11:13:22,30-Sep-21,0.0145,0.013,0.00021025,0.000169
11:13:22,30-Sep-21,0.01,0.013,0.0001,0.000169
11:13:23,30-Sep-21,0.01,0.013,0.0001,0.000169
11:13:23,30-Sep-21,0.01,0.013,0.0001,0.000169
11:13:23,30-Sep-21,0.01,0.013,0.0001,0.000169
11:13:23,30-Sep-21,0.01,0.013,0.0001,0.000169
11:13:23,30-Sep-21,0.0145,0.013,0.00021025,0.000169
11:13:23,30-Sep-21,0.0145,0.013,0.00021025,0.000169
11:13:23,30-Sep-21,0.0145,0.013,0.00021025,0.000169
11:13:23,30-Sep-21,0.0145,0.013,0.00021025,0.000169
11:13:23,30-Sep-21,0.0145,0.014,0.00021025,0.000196
11:13:23,30-Sep-21,0.0145,0.014,0.00021025,0.000196
11:13:23,30-Sep-21,0.0145,0.014,0.00021025,0.000196
11:13:23,30-Sep-21,0.0145,0.014,0.00021025,0.000196
11:13:23,30-Sep-21,0.0145,0.014,0.00021025,0.000196
11:13:23,30-Sep-21,0.0145,0.014,0.00021025,0.000196
11:13:23,30-Sep-21,0.0145,0.014,0.00021025,0.000196
11:13:23,30-Sep-21,0.0145,0.014,0.00021025,0.000196
11:13:23,30-Sep-21,0.0145,0.014,0.00021025,0.000196
11:13:23,30-Sep-21,0.0145,0.014,0.00021025,0.000196
11:13:23,30-Sep-21,0.0145,0.014,0.00021025,0.000196
11:13:23,30-Sep-21,0.0145,0.014,0.00021025,0.000196
11:13:23,30-Sep-21,0.0145,0.014,0.00021025,0.000196
11:13:23,30-Sep-21,0.0145,0.014,0.00021025,0.000196
11:13:23,30-Sep-21,0.0145,0.014,0.00021025,0.000196
11:13:23,30-Sep-21,0.0145,0.014,0.00021025,0.000196
11:13:23,30-Sep-21,0.0145,0.014,0.00021025,0.000196
11:13:23,30-Sep-21,0.0145,0.014,0.00021025,0.000196
11:13:23,30-Sep-21,0.0145,0.014,0.00021025,0.000196
11:13:23,30-Sep-21,0.0145,0.014,0.00021025,0.000196
11:13:23,30-Sep-21,0.0145,0.014,0.00021025,0.000196
11:13:23,30-Sep-21,0.0145,0.014,0.00021025,0.000196
11:13:23,30-Sep-21,0.0145,0.014,0.00021025,0.000196
11:13:23,30-Sep-21,0.0145,0.014,0.00021025,0.000196
11:13:23,30-Sep-21,0.0145,0.014,0.00021025,0.000196
11:13:23,30-Sep-21,0.0145,0.014,0.00021025,0.000196
11:13:23,30-Sep-21,0.0145,0.014,0.00021025,0.000196
11:13:23,30-Sep-21,0.01,0.014,0.0001,0.000196
11:13:23,30-Sep-21,0.01,0.014,0.0001,0.000196
11:13:23,30-Sep-21,0.01,0.014,0.0001,0.000196
11:13:23,30-Sep-21,0.0145,0.014,0.00021025,0.000196
11:13:23,30-Sep-21,0.0145,0.014,0.00021025,0.000196
11:13:23,30-Sep-21,0.0145,0.014,0.00021025,0.000196
11:13:23,30-Sep-21,0.0145,0.014,0.00021025,0.000196
11:13:23,30-Sep-21,0.0145,0.014,0.00021025,0.000196
11:13:23,30-Sep-21,0.0145,0.014,0.00021025,0.000196
11:13:23,30-Sep-21,0.0145,0.014,0.00021025,0.000196
11:13:23,30-Sep-21,0.0145,0.014,0.00021025,0.000196
11:13:23,30-Sep-21,0.0145,0.014,0.00021025,0.000196
11:13:23,30-Sep-21,0.0145,0.014,0.00021025,0.000196
11:13:23,30-Sep-21,0.0145,0.014,0.00021025,0.000196
11:13:23,30-Sep-21,0.0145,0.014,0.00021025,0.000196
11:13:23,30-Sep-21,0.0145,0.014,0.00021025,0.000196
11:13:23,30-Sep-21,0.0145,0.014,0.00021025,0.000196
11:13:23,30-Sep-21,0.0145,0.014,0.00021025,0.000196
11:13:23,30-Sep-21,0.0145,0.014,0.00021025,0.000196
11:13:23,30-Sep-21,0.0145,0.015,0.00021025,0.000225
11:13:23,30-Sep-21,0.0145,0.015,0.00021025,0.000225
11:13:23,30-Sep-21,0.0145,0.015,0.00021025,0.000225
11:13:23,30-Sep-21,0.0145,0.015,0.00021025,0.000225
11:13:23,30-Sep-21,0.0145,0.015,0.00021025,0.000225
11:13:23,30-Sep-21,0.0145,0.015,0.00021025,0.000225
11:13:23,30-Sep-21,0.0145,0.015,0.00021025,0.000225
11:13:23,30-Sep-21,0.0145,0.015,0.00021025,0.000225
11:13:23,30-Sep-21,0.0145,0.015,0.00021025,0.000225
11:13:23,30-Sep-21,0.0145,0.015,0.00021025,0.000225
11:13:23,30-Sep-21,0.0145,0.015,0.00021025,0.000225
11:13:23,30-Sep-21,0.0145,0.015,0.00021025,0.000225
11:13:23,30-Sep-21,0.0145,0.015,0.00021025,0.000225
11:13:23,30-Sep-21,0.0195,0.015,0.00038025,0.000225
11:13:23,30-Sep-21,0.0195,0.015,0.00038025,0.000225
11:13:23,30-Sep-21,0.0145,0.015,0.00021025,0.000225
11:13:23,30-Sep-21,0.0145,0.015,0.00021025,0.000225
11:13:23,30-Sep-21,0.0145,0.015,0.00021025,0.000225
11:13:23,30-Sep-21,0.0145,0.015,0.00021025,0.000225
11:13:23,30-Sep-21,0.0145,0.015,0.00021025,0.000225
11:13:23,30-Sep-21,0.0145,0.015,0.00021025,0.000225
11:13:23,30-Sep-21,0.0145,0.015,0.00021025,0.000225
11:13:23,30-Sep-21,0.0145,0.015,0.00021025,0.000225
11:13:23,30-Sep-21,0.0145,0.015,0.00021025,0.000225
11:13:23,30-Sep-21,0.0145,0.015,0.00021025,0.000225
11:13:23,30-Sep-21,0.0145,0.015,0.00021025,0.000225
11:13:23,30-Sep-21,0.0145,0.015,0.00021025,0.000225
11:13:23,30-Sep-21,0.0145,0.015,0.00021025,0.000225
11:13:23,30-Sep-21,0.0145,0.015,0.00021025,0.000225
11:13:23,30-Sep-21,0.0195,0.016,0.00038025,0.000256
11:13:23,30-Sep-21,0.0145,0.016,0.00021025,0.000256
11:13:23,30-Sep-21,0.0145,0.016,0.00021025,0.000256
11:13:23,30-Sep-21,0.0145,0.016,0.00021025,0.000256
11:13:23,30-Sep-21,0.0145,0.016,0.00021025,0.000256
11:13:23,30-Sep-21,0.0195,0.016,0.00038025,0.000256
11:13:23,30-Sep-21,0.0195,0.016,0.00038025,0.000256
11:13:23,30-Sep-21,0.0145,0.016,0.00021025,0.000256
11:13:23,30-Sep-21,0.0145,0.016,0.00021025,0.000256
11:13:23,30-Sep-21,0.0195,0.016,0.00038025,0.000256
11:13:23,30-Sep-21,0.0195,0.016,0.00038025,0.000256
11:13:23,30-Sep-21,0.0195,0.016,0.00038025,0.000256
11:13:23,30-Sep-21,0.0145,0.016,0.00021025,0.000256
11:13:24,30-Sep-21,0.0145,0.016,0.00021025,0.000256
11:13:24,30-Sep-21,0.0145,0.016,0.00021025,0.000256
11:13:24,30-Sep-21,0.0145,0.016,0.00021025,0.000256
11:13:24,30-Sep-21,0.0145,0.016,0.00021025,0.000256
11:13:24,30-Sep-21,0.0145,0.016,0.00021025,0.000256
11:13:24,30-Sep-21,0.0145,0.016,0.00021025,0.000256
11:13:24,30-Sep-21,0.0145,0.016,0.00021025,0.000256
11:13:24,30-Sep-21,0.0145,0.016,0.00021025,0.000256
11:13:24,30-Sep-21,0.0145,0.016,0.00021025,0.000256
11:13:24,30-Sep-21,0.0145,0.016,0.00021025,0.000256
11:13:24,30-Sep-21,0.0145,0.016,0.00021025,0.000256
11:13:24,30-Sep-21,0.0195,0.016,0.00038025,0.000256
11:13:24,30-Sep-21,0.0195,0.016,0.00038025,0.000256
11:13:24,30-Sep-21,0.0195,0.016,0.00038025,0.000256
11:13:24,30-Sep-21,0.0145,0.016,0.00021025,0.000256
11:13:24,30-Sep-21,0.0145,0.016,0.00021025,0.000256
11:13:24,30-Sep-21,0.0145,0.017,0.00021025,0.000289
11:13:24,30-Sep-21,0.0195,0.017,0.00038025,0.000289
11:13:24,30-Sep-21,0.0195,0.017,0.00038025,0.000289
11:13:24,30-Sep-21,0.0195,0.017,0.00038025,0.000289
11:13:24,30-Sep-21,0.0195,0.017,0.00038025,0.000289
11:13:24,30-Sep-21,0.0145,0.017,0.00021025,0.000289
11:13:24,30-Sep-21,0.0145,0.017,0.00021025,0.000289
11:13:24,30-Sep-21,0.0145,0.017,0.00021025,0.000289
11:13:24,30-Sep-21,0.0145,0.017,0.00021025,0.000289
11:13:24,30-Sep-21,0.0145,0.017,0.00021025,0.000289
11:13:24,30-Sep-21,0.0145,0.017,0.00021025,0.000289
11:13:24,30-Sep-21,0.0145,0.017,0.00021025,0.000289
11:13:24,30-Sep-21,0.0145,0.018,0.00021025,0.000324
11:13:24,30-Sep-21,0.0145,0.018,0.00021025,0.000324
11:13:24,30-Sep-21,0.0195,0.018,0.00038025,0.000324
11:13:24,30-Sep-21,0.0195,0.018,0.00038025,0.000324
11:13:24,30-Sep-21,0.0195,0.018,0.00038025,0.000324
11:13:24,30-Sep-21,0.0195,0.018,0.00038025,0.000324
11:13:24,30-Sep-21,0.0195,0.018,0.00038025,0.000324
11:13:24,30-Sep-21,0.0195,0.018,0.00038025,0.000324
11:13:24,30-Sep-21,0.0195,0.018,0.00038025,0.000324
11:13:24,30-Sep-21,0.0195,0.018,0.00038025,0.000324
11:13:24,30-Sep-21,0.0195,0.018,0.00038025,0.000324
11:13:24,30-Sep-21,0.0195,0.018,0.00038025,0.000324
11:13:24,30-Sep-21,0.0195,0.018,0.00038025,0.000324
11:13:24,30-Sep-21,0.0195,0.018,0.00038025,0.000324
11:13:24,30-Sep-21,0.0195,0.018,0.00038025,0.000324
11:13:24,30-Sep-21,0.0195,0.018,0.00038025,0.000324
11:13:24,30-Sep-21,0.0195,0.018,0.00038025,0.000324
11:13:24,30-Sep-21,0.0195,0.018,0.00038025,0.000324
11:13:24,30-Sep-21,0.0195,0.018,0.00038025,0.000324
11:13:24,30-Sep-21,0.0195,0.017,0.00038025,0.000289
11:13:24,30-Sep-21,0.0195,0.017,0.00038025,0.000289
11:13:24,30-Sep-21,0.0145,0.017,0.00021025,0.000289
11:13:24,30-Sep-21,0.0145,0.017,0.00021025,0.000289
11:13:24,30-Sep-21,0.0145,0.017,0.00021025,0.000289
11:13:24,30-Sep-21,0.0195,0.017,0.00038025,0.000289
11:13:24,30-Sep-21,0.0195,0.017,0.00038025,0.000289
11:13:24,30-Sep-21,0.0145,0.017,0.00021025,0.000289
11:13:24,30-Sep-21,0.0145,0.017,0.00021025,0.000289
11:13:24,30-Sep-21,0.0145,0.016,0.00021025,0.000256
11:13:24,30-Sep-21,0.0145,0.016,0.00021025,0.000256
11:13:24,30-Sep-21,0.0145,0.016,0.00021025,0.000256
11:13:24,30-Sep-21,0.0145,0.016,0.00021025,0.000256
11:13:24,30-Sep-21,0.0145,0.016,0.00021025,0.000256
11:13:24,30-Sep-21,0.0145,0.016,0.00021025,0.000256
11:13:24,30-Sep-21,0.0145,0.016,0.00021025,0.000256
11:13:24,30-Sep-21,0.0145,0.016,0.00021025,0.000256
11:13:24,30-Sep-21,0.0145,0.016,0.00021025,0.000256
11:13:24,30-Sep-21,0.0145,0.016,0.00021025,0.000256
11:13:24,30-Sep-21,0.0145,0.016,0.00021025,0.000256
11:13:24,30-Sep-21,0.0145,0.016,0.00021025,0.000256
11:13:24,30-Sep-21,0.0145,0.015,0.00021025,0.000225
11:13:24,30-Sep-21,0.0145,0.015,0.00021025,0.000225
11:13:24,30-Sep-21,0.0145,0.015,0.00021025,0.000225
11:13:24,30-Sep-21,0.0145,0.015,0.00021025,0.000225
11:13:24,30-Sep-21,0.0145,0.015,0.00021025,0.000225
11:13:24,30-Sep-21,0.0145,0.015,0.00021025,0.000225
11:13:24,30-Sep-21,0.0145,0.015,0.00021025,0.000225
11:13:24,30-Sep-21,0.0195,0.015,0.00038025,0.000225
11:13:24,30-Sep-21,0.0195,0.015,0.00038025,0.000225
11:13:24,30-Sep-21,0.0195,0.015,0.00038025,0.000225
11:13:24,30-Sep-21,0.0195,0.015,0.00038025,0.000225
11:13:24,30-Sep-21,0.0145,0.015,0.00021025,0.000225
11:13:24,30-Sep-21,0.0145,0.015,0.00021025,0.000225
11:13:24,30-Sep-21,0.0145,0.015,0.00021025,0.000225
11:13:24,30-Sep-21,0.0195,0.015,0.00038025,0.000225
11:13:24,30-Sep-21,0.0145,0.015,0.00021025,0.000225
11:13:24,30-Sep-21,0.0145,0.015,0.00021025,0.000225
11:13:24,30-Sep-21,0.0145,0.015,0.00021025,0.000225
11:13:24,30-Sep-21,0.0145,0.015,0.00021025,0.000225
11:13:24,30-Sep-21,0.0145,0.014,0.00021025,0.000196
11:13:24,30-Sep-21,0.0145,0.014,0.00021025,0.000196
11:13:24,30-Sep-21,0.0145,0.014,0.00021025,0.000196
11:13:24,30-Sep-21,0.0145,0.014,0.00021025,0.000196
11:13:24,30-Sep-21,0.0145,0.014,0.00021025,0.000196
11:13:24,30-Sep-21,0.0145,0.014,0.00021025,0.000196
11:13:24,30-Sep-21,0.0145,0.014,0.00021025,0.000196
11:13:24,30-Sep-21,0.0145,0.014,0.00021025,0.000196
11:13:24,30-Sep-21,0.0145,0.014,0.00021025,0.000196
11:13:24,30-Sep-21,0.0145,0.014,0.00021025,0.000196
11:13:24,30-Sep-21,0.0145,0.014,0.00021025,0.000196
11:13:24,30-Sep-21,0.0145,0.014,0.00021025,0.000196
11:13:24,30-Sep-21,0.0145,0.014,0.00021025,0.000196
11:13:24,30-Sep-21,0.01,0.014,0.0001,0.000196
11:13:24,30-Sep-21,0.01,0.014,0.0001,0.000196
11:13:24,30-Sep-21,0.01,0.014,0.0001,0.000196
11:13:24,30-Sep-21,0.0145,0.014,0.00021025,0.000196
11:13:25,30-Sep-21,0.0145,0.014,0.00021025,0.000196
11:13:25,30-Sep-21,0.01,0.014,0.0001,0.000196
11:13:25,30-Sep-21,0.0145,0.014,0.00021025,0.000196
11:13:25,30-Sep-21,0.0145,0.014,0.00021025,0.000196
11:13:25,30-Sep-21,0.0145,0.014,0.00021025,0.000196
11:13:25,30-Sep-21,0.0145,0.014,0.00021025,0.000196
11:13:25,30-Sep-21,0.0145,0.015,0.00021025,0.000225
11:13:25,30-Sep-21,0.0145,0.015,0.00021025,0.000225
11:13:25,30-Sep-21,0.0145,0.015,0.00021025,0.000225
11:13:25,30-Sep-21,0.0145,0.015,0.00021025,0.000225
11:13:25,30-Sep-21,0.0145,0.015,0.00021025,0.000225
11:13:25,30-Sep-21,0.0145,0.015,0.00021025,0.000225
11:13:25,30-Sep-21,0.0145,0.015,0.00021025,0.000225
11:13:25,30-Sep-21,0.0145,0.015,0.00021025,0.000225
11:13:25,30-Sep-21,0.0145,0.015,0.00021025,0.000225
11:13:25,30-Sep-21,0.0145,0.016,0.00021025,0.000256
11:13:25,30-Sep-21,0.0145,0.016,0.00021025,0.000256
11:13:25,30-Sep-21,0.0145,0.016,0.00021025,0.000256
11:13:25,30-Sep-21,0.0145,0.016,0.00021025,0.000256
11:13:25,30-Sep-21,0.0195,0.016,0.00038025,0.000256
11:13:25,30-Sep-21,0.0195,0.016,0.00038025,0.000256
11:13:25,30-Sep-21,0.0195,0.016,0.00038025,0.000256
11:13:25,30-Sep-21,0.0195,0.016,0.00038025,0.000256
11:13:25,30-Sep-21,0.0195,0.016,0.00038025,0.000256
11:13:25,30-Sep-21,0.0195,0.016,0.00038025,0.000256
11:13:25,30-Sep-21,0.0195,0.016,0.00038025,0.000256
11:13:25,30-Sep-21,0.0195,0.016,0.00038025,0.000256
11:13:25,30-Sep-21,0.0145,0.016,0.00021025,0.000256
11:13:25,30-Sep-21,0.0145,0.016,0.00021025,0.000256
11:13:25,30-Sep-21,0.0145,0.016,0.00021025,0.000256
11:13:25,30-Sep-21,0.0145,0.016,0.00021025,0.000256
11:13:25,30-Sep-21,0.0145,0.016,0.00021025,0.000256
11:13:25,30-Sep-21,0.0195,0.016,0.00038025,0.000256
11:13:25,30-Sep-21,0.0195,0.016,0.00038025,0.000256
11:13:25,30-Sep-21,0.0145,0.016,0.00021025,0.000256
11:13:25,30-Sep-21,0.0145,0.016,0.00021025,0.000256
11:13:25,30-Sep-21,0.0145,0.016,0.00021025,0.000256
11:13:25,30-Sep-21,0.0145,0.016,0.00021025,0.000256
11:13:25,30-Sep-21,0.0145,0.016,0.00021025,0.000256
11:13:25,30-Sep-21,0.0145,0.016,0.00021025,0.000256
11:13:25,30-Sep-21,0.0145,0.016,0.00021025,0.000256
11:13:25,30-Sep-21,0.0145,0.016,0.00021025,0.000256
11:13:25,30-Sep-21,0.0145,0.015,0.00021025,0.000225
11:13:25,30-Sep-21,0.0145,0.015,0.00021025,0.000225
11:13:25,30-Sep-21,0.0145,0.015,0.00021025,0.000225
11:13:25,30-Sep-21,0.0145,0.015,0.00021025,0.000225
11:13:25,30-Sep-21,0.0145,0.015,0.00021025,0.000225
11:13:25,30-Sep-21,0.0145,0.015,0.00021025,0.000225
11:13:25,30-Sep-21,0.0145,0.015,0.00021025,0.000225
11:13:25,30-Sep-21,0.0195,0.015,0.00038025,0.000225
11:13:25,30-Sep-21,0.0145,0.015,0.00021025,0.000225
11:13:25,30-Sep-21,0.0145,0.015,0.00021025,0.000225
11:13:25,30-Sep-21,0.0145,0.015,0.00021025,0.000225
11:13:25,30-Sep-21,0.0145,0.015,0.00021025,0.000225
11:13:25,30-Sep-21,0.0145,0.015,0.00021025,0.000225
11:13:25,30-Sep-21,0.0145,0.015,0.00021025,0.000225
11:13:25,30-Sep-21,0.0145,0.015,0.00021025,0.000225
11:13:25,30-Sep-21,0.0145,0.015,0.00021025,0.000225
11:13:25,30-Sep-21,0.0145,0.014,0.00021025,0.000196
11:13:25,30-Sep-21,0.0145,0.014,0.00021025,0.000196
11:13:25,30-Sep-21,0.0145,0.014,0.00021025,0.000196
11:13:25,30-Sep-21,0.0145,0.014,0.00021025,0.000196
11:13:25,30-Sep-21,0.0145,0.014,0.00021025,0.000196
11:13:25,30-Sep-21,0.0145,0.014,0.00021025,0.000196
11:13:25,30-Sep-21,0.0145,0.014,0.00021025,0.000196
11:13:25,30-Sep-21,0.0145,0.014,0.00021025,0.000196
11:13:25,30-Sep-21,0.0145,0.014,0.00021025,0.000196
11:13:25,30-Sep-21,0.0145,0.014,0.00021025,0.000196
11:13:25,30-Sep-21,0.0145,0.014,0.00021025,0.000196
11:13:25,30-Sep-21,0.0145,0.014,0.00021025,0.000196
11:13:25,30-Sep-21,0.0145,0.014,0.00021025,0.000196
11:13:25,30-Sep-21,0.0145,0.014,0.00021025,0.000196
11:13:25,30-Sep-21,0.0145,0.014,0.00021025,0.000196
11:13:25,30-Sep-21,0.0145,0.014,0.00021025,0.000196
11:13:25,30-Sep-21,0.0145,0.014,0.00021025,0.000196
11:13:25,30-Sep-21,0.0145,0.014,0.00021025,0.000196
11:13:25,30-Sep-21,0.0145,0.014,0.00021025,0.000196
11:13:25,30-Sep-21,0.0145,0.014,0.00021025,0.000196
11:13:25,30-Sep-21,0.01,0.014,0.0001,0.000196
11:13:25,30-Sep-21,0.01,0.014,0.0001,0.000196
11:13:25,30-Sep-21,0.0145,0.014,0.00021025,0.000196
11:13:25,30-Sep-21,0.0145,0.014,0.00021025,0.000196
11:13:25,30-Sep-21,0.0145,0.014,0.00021025,0.000196
11:13:25,30-Sep-21,0.0145,0.014,0.00021025,0.000196
11:13:25,30-Sep-21,0.0145,0.014,0.00021025,0.000196
11:13:25,30-Sep-21,0.0145,0.014,0.00021025,0.000196
11:13:25,30-Sep-21,0.0145,0.014,0.00021025,0.000196
11:13:25,30-Sep-21,0.0145,0.014,0.00021025,0.000196
11:13:25,30-Sep-21,0.0145,0.014,0.00021025,0.000196
11:13:25,30-Sep-21,0.0145,0.014,0.00021025,0.000196
11:13:25,30-Sep-21,0.0145,0.014,0.00021025,0.000196
11:13:25,30-Sep-21,0.0145,0.014,0.00021025,0.000196
11:13:25,30-Sep-21,0.0145,0.014,0.00021025,0.000196
11:13:25,30-Sep-21,0.0145,0.014,0.00021025,0.000196
11:13:25,30-Sep-21,0.0145,0.014,0.00021025,0.000196
11:13:25,30-Sep-21,0.0145,0.014,0.00021025,0.000196
11:13:25,30-Sep-21,0.0145,0.014,0.00021025,0.000196
11:13:25,30-Sep-21,0.0145,0.014,0.00021025,0.000196
11:13:25,30-Sep-21,0.0145,0.014,0.00021025,0.000196
11:13:25,30-Sep-21,0.0145,0.014,0.00021025,0.000196
11:13:25,30-Sep-21,0.0145,0.014,0.00021025,0.000196
11:13:26,30-Sep-21,0.0145,0.014,0.00021025,0.000196
11:13:26,30-Sep-21,0.0145,0.015,0.00021025,0.000225
11:13:26,30-Sep-21,0.0145,0.015,0.00021025,0.000225
11:13:26,30-Sep-21,0.0145,0.015,0.00021025,0.000225
11:13:26,30-Sep-21,0.0145,0.015,0.00021025,0.000225
11:13:26,30-Sep-21,0.0145,0.015,0.00021025,0.000225
11:13:26,30-Sep-21,0.0145,0.015,0.00021025,0.000225
11:13:26,30-Sep-21,0.0145,0.015,0.00021025,0.000225
11:13:26,30-Sep-21,0.0145,0.015,0.00021025,0.000225
11:13:26,30-Sep-21,0.0145,0.015,0.00021025,0.000225
11:13:26,30-Sep-21,0.0145,0.015,0.00021025,0.000225
11:13:26,30-Sep-21,0.0145,0.015,0.00021025,0.000225
11:13:26,30-Sep-21,0.0145,0.015,0.00021025,0.000225
11:13:26,30-Sep-21,0.0145,0.015,0.00021025,0.000225
11:13:26,30-Sep-21,0.0145,0.015,0.00021025,0.000225
11:13:26,30-Sep-21,0.0145,0.015,0.00021025,0.000225
11:13:26,30-Sep-21,0.0145,0.015,0.00021025,0.000225
11:13:26,30-Sep-21,0.0145,0.015,0.00021025,0.000225
11:13:26,30-Sep-21,0.0145,0.015,0.00021025,0.000225
11:13:26,30-Sep-21,0.0145,0.015,0.00021025,0.000225
11:13:26,30-Sep-21,0.0145,0.015,0.00021025,0.000225
11:13:26,30-Sep-21,0.0145,0.015,0.00021025,0.000225
11:13:26,30-Sep-21,0.0145,0.015,0.00021025,0.000225
11:13:26,30-Sep-21,0.0145,0.015,0.00021025,0.000225
11:13:26,30-Sep-21,0.0145,0.014,0.00021025,0.000196
11:13:26,30-Sep-21,0.0145,0.014,0.00021025,0.000196
11:13:26,30-Sep-21,0.0145,0.014,0.00021025,0.000196
11:13:26,30-Sep-21,0.0145,0.014,0.00021025,0.000196
11:13:26,30-Sep-21,0.0145,0.014,0.00021025,0.000196
11:13:26,30-Sep-21,0.0145,0.014,0.00021025,0.000196
11:13:26,30-Sep-21,0.0145,0.014,0.00021025,0.000196
11:13:26,30-Sep-21,0.0145,0.014,0.00021025,0.000196
11:13:26,30-Sep-21,0.0145,0.014,0.00021025,0.000196
11:13:26,30-Sep-21,0.0145,0.014,0.00021025,0.000196
11:13:26,30-Sep-21,0.0145,0.014,0.00021025,0.000196
11:13:26,30-Sep-21,0.0145,0.014,0.00021025,0.000196
11:13:26,30-Sep-21,0.0145,0.014,0.00021025,0.000196
11:13:26,30-Sep-21,0.0145,0.014,0.00021025,0.000196
11:13:26,30-Sep-21,0.0145,0.014,0.00021025,0.000196
11:13:26,30-Sep-21,0.0145,0.014,0.00021025,0.000196
11:13:26,30-Sep-21,0.0145,0.014,0.00021025,0.000196
11:13:26,30-Sep-21,0.0145,0.014,0.00021025,0.000196
11:13:26,30-Sep-21,0.0145,0.014,0.00021025,0.000196
11:13:26,30-Sep-21,0.0145,0.014,0.00021025,0.000196
11:13:26,30-Sep-21,0.0145,0.014,0.00021025,0.000196
11:13:26,30-Sep-21,0.0145,0.014,0.00021025,0.000196
11:13:26,30-Sep-21,0.0145,0.014,0.00021025,0.000196
11:13:26,30-Sep-21,0.0145,0.014,0.00021025,0.000196
11:13:26,30-Sep-21,0.0145,0.014,0.00021025,0.000196
11:13:26,30-Sep-21,0.0145,0.014,0.00021025,0.000196
11:13:26,30-Sep-21,0.0145,0.014,0.00021025,0.000196
11:13:26,30-Sep-21,0.01,0.014,0.0001,0.000196
11:13:26,30-Sep-21,0.01,0.014,0.0001,0.000196
11:13:26,30-Sep-21,0.01,0.014,0.0001,0.000196
11:13:26,30-Sep-21,0.0145,0.014,0.00021025,0.000196
11:13:26,30-Sep-21,0.0145,0.014,0.00021025,0.000196
11:13:26,30-Sep-21,0.0145,0.014,0.00021025,0.000196
11:13:26,30-Sep-21,0.0145,0.014,0.00021025,0.000196
11:13:26,30-Sep-21,0.0145,0.014,0.00021025,0.000196
11:13:26,30-Sep-21,0.0145,0.014,0.00021025,0.000196
11:13:26,30-Sep-21,0.0145,0.014,0.00021025,0.000196
11:13:26,30-Sep-21,0.0145,0.014,0.00021025,0.000196
11:13:26,30-Sep-21,0.0145,0.014,0.00021025,0.000196
11:13:26,30-Sep-21,0.0145,0.015,0.00021025,0.000225
11:13:26,30-Sep-21,0.0195,0.015,0.00038025,0.000225
11:13:26,30-Sep-21,0.0145,0.015,0.00021025,0.000225
11:13:26,30-Sep-21,0.0145,0.015,0.00021025,0.000225
11:13:26,30-Sep-21,0.0145,0.015,0.00021025,0.000225
11:13:26,30-Sep-21,0.0145,0.015,0.00021025,0.000225
11:13:26,30-Sep-21,0.0145,0.015,0.00021025,0.000225
11:13:26,30-Sep-21,0.0145,0.015,0.00021025,0.000225
11:13:26,30-Sep-21,0.0145,0.015,0.00021025,0.000225
11:13:26,30-Sep-21,0.0145,0.015,0.00021025,0.000225
11:13:26,30-Sep-21,0.0145,0.015,0.00021025,0.000225
11:13:26,30-Sep-21,0.0145,0.015,0.00021025,0.000225
11:13:26,30-Sep-21,0.0145,0.015,0.00021025,0.000225
11:13:26,30-Sep-21,0.0145,0.015,0.00021025,0.000225
11:13:26,30-Sep-21,0.0145,0.015,0.00021025,0.000225
11:13:26,30-Sep-21,0.0195,0.015,0.00038025,0.000225
11:13:26,30-Sep-21,0.0195,0.015,0.00038025,0.000225
11:13:26,30-Sep-21,0.0145,0.015,0.00021025,0.000225
11:13:26,30-Sep-21,0.0145,0.015,0.00021025,0.000225
11:13:26,30-Sep-21,0.0145,0.015,0.00021025,0.000225
11:13:26,30-Sep-21,0.0145,0.015,0.00021025,0.000225
11:13:26,30-Sep-21,0.0145,0.015,0.00021025,0.000225
11:13:26,30-Sep-21,0.0145,0.015,0.00021025,0.000225
11:13:26,30-Sep-21,0.0145,0.015,0.00021025,0.000225
11:13:26,30-Sep-21,0.0145,0.015,0.00021025,0.000225
11:13:26,30-Sep-21,0.0145,0.015,0.00021025,0.000225
11:13:26,30-Sep-21,0.0145,0.015,0.00021025,0.000225
11:13:26,30-Sep-21,0.0145,0.015,0.00021025,0.000225
11:13:26,30-Sep-21,0.0145,0.015,0.00021025,0.000225
11:13:26,30-Sep-21,0.0145,0.015,0.00021025,0.000225
11:13:26,30-Sep-21,0.0145,0.015,0.00021025,0.000225
11:13:27,30-Sep-21,0.0145,0.015,0.00021025,0.000225
11:13:27,30-Sep-21,0.0145,0.015,0.00021025,0.000225
11:13:27,30-Sep-21,0.0145,0.015,0.00021025,0.000225
11:13:27,30-Sep-21,0.0145,0.015,0.00021025,0.000225
11:13:27,30-Sep-21,0.0145,0.015,0.00021025,0.000225
11:13:27,30-Sep-21,0.0145,0.015,0.00021025,0.000225
11:13:27,30-Sep-21,0.0145,0.015,0.00021025,0.000225
11:13:27,30-Sep-21,0.0145,0.015,0.00021025,0.000225
11:13:27,30-Sep-21,0.0145,0.015,0.00021025,0.000225
11:13:27,30-Sep-21,0.0145,0.015,0.00021025,0.000225
11:13:27,30-Sep-21,0.0145,0.015,0.00021025,0.000225
11:13:27,30-Sep-21,0.0145,0.015,0.00021025,0.000225
11:13:27,30-Sep-21,0.0145,0.015,0.00021025,0.000225
11:13:27,30-Sep-21,0.0145,0.015,0.00021025,0.000225
11:13:27,30-Sep-21,0.0145,0.014,0.00021025,0.000196
11:13:27,30-Sep-21,0.0145,0.014,0.00021025,0.000196
11:13:27,30-Sep-21,0.0145,0.014,0.00021025,0.000196
11:13:27,30-Sep-21,0.0145,0.014,0.00021025,0.000196
11:13:27,30-Sep-21,0.0145,0.014,0.00021025,0.000196
11:13:27,30-Sep-21,0.0145,0.014,0.00021025,0.000196
11:13:27,30-Sep-21,0.0145,0.014,0.00021025,0.000196
11:13:27,30-Sep-21,0.0145,0.014,0.00021025,0.000196
11:13:27,30-Sep-21,0.0145,0.014,0.00021025,0.000196
11:13:27,30-Sep-21,0.0145,0.014,0.00021025,0.000196
11:13:27,30-Sep-21,0.0145,0.014,0.00021025,0.000196
11:13:27,30-Sep-21,0.0145,0.014,0.00021025,0.000196
11:13:27,30-Sep-21,0.0145,0.014,0.00021025,0.000196
11:13:27,30-Sep-21,0.0145,0.014,0.00021025,0.000196
11:13:27,30-Sep-21,0.0145,0.014,0.00021025,0.000196
11:13:27,30-Sep-21,0.0145,0.014,0.00021025,0.000196
11:13:27,30-Sep-21,0.0145,0.014,0.00021025,0.000196
11:13:27,30-Sep-21,0.0145,0.014,0.00021025,0.000196
11:13:27,30-Sep-21,0.0145,0.014,0.00021025,0.000196
11:13:27,30-Sep-21,0.0145,0.014,0.00021025,0.000196
11:13:27,30-Sep-21,0.0145,0.014,0.00021025,0.000196
11:13:27,30-Sep-21,0.0145,0.014,0.00021025,0.000196
11:13:27,30-Sep-21,0.0145,0.014,0.00021025,0.000196
11:13:27,30-Sep-21,0.0145,0.014,0.00021025,0.000196
11:13:27,30-Sep-21,0.0145,0.014,0.00021025,0.000196
11:13:27,30-Sep-21,0.0145,0.014,0.00021025,0.000196
11:13:27,30-Sep-21,0.0145,0.014,0.00021025,0.000196
11:13:27,30-Sep-21,0.0145,0.014,0.00021025,0.000196
11:13:27,30-Sep-21,0.0145,0.014,0.00021025,0.000196
11:13:27,30-Sep-21,0.0145,0.014,0.00021025,0.000196
11:13:27,30-Sep-21,0.0145,0.014,0.00021025,0.000196
11:13:27,30-Sep-21,0.0145,0.014,0.00021025,0.000196
11:13:27,30-Sep-21,0.0145,0.014,0.00021025,0.000196
11:13:27,30-Sep-21,0.0145,0.014,0.00021025,0.000196
11:13:27,30-Sep-21,0.0145,0.014,0.00021025,0.000196
11:13:27,30-Sep-21,0.0145,0.014,0.00021025,0.000196
11:13:27,30-Sep-21,0.0145,0.014,0.00021025,0.000196
11:13:27,30-Sep-21,0.0145,0.014,0.00021025,0.000196
11:13:27,30-Sep-21,0.0145,0.014,0.00021025,0.000196
11:13:27,30-Sep-21,0.0145,0.014,0.00021025,0.000196
11:13:27,30-Sep-21,0.0145,0.014,0.00021025,0.000196
11:13:27,30-Sep-21,0.0145,0.014,0.00021025,0.000196
11:13:27,30-Sep-21,0.0145,0.014,0.00021025,0.000196
11:13:27,30-Sep-21,0.0145,0.014,0.00021025,0.000196
11:13:27,30-Sep-21,0.0145,0.014,0.00021025,0.000196
11:13:27,30-Sep-21,0.0145,0.014,0.00021025,0.000196
11:13:27,30-Sep-21,0.0145,0.014,0.00021025,0.000196
11:13:27,30-Sep-21,0.0145,0.014,0.00021025,0.000196
11:13:27,30-Sep-21,0.0145,0.014,0.00021025,0.000196
11:13:27,30-Sep-21,0.0145,0.014,0.00021025,0.000196
11:13:27,30-Sep-21,0.0145,0.014,0.00021025,0.000196
11:13:27,30-Sep-21,0.0145,0.014,0.00021025,0.000196
11:13:27,30-Sep-21,0.0145,0.014,0.00021025,0.000196
11:13:27,30-Sep-21,0.0145,0.014,0.00021025,0.000196
11:13:27,30-Sep-21,0.0145,0.014,0.00021025,0.000196
11:13:27,30-Sep-21,0.0145,0.014,0.00021025,0.000196
11:13:27,30-Sep-21,0.0145,0.014,0.00021025,0.000196
11:13:27,30-Sep-21,0.0145,0.014,0.00021025,0.000196
11:13:27,30-Sep-21,0.0145,0.014,0.00021025,0.000196
11:13:27,30-Sep-21,0.0145,0.014,0.00021025,0.000196
11:13:27,30-Sep-21,0.0145,0.014,0.00021025,0.000196
11:13:27,30-Sep-21,0.0145,0.015,0.00021025,0.000225
11:13:27,30-Sep-21,0.0145,0.015,0.00021025,0.000225
11:13:27,30-Sep-21,0.0145,0.015,0.00021025,0.000225
11:13:27,30-Sep-21,0.01,0.015,0.0001,0.000225
11:13:27,30-Sep-21,0.01,0.015,0.0001,0.000225
11:13:27,30-Sep-21,0.0145,0.015,0.00021025,0.000225
11:13:27,30-Sep-21,0.0145,0.015,0.00021025,0.000225
11:13:27,30-Sep-21,0.0145,0.015,0.00021025,0.000225
11:13:27,30-Sep-21,0.0145,0.015,0.00021025,0.000225
11:13:27,30-Sep-21,0.0145,0.015,0.00021025,0.000225
11:13:27,30-Sep-21,0.0145,0.015,0.00021025,0.000225
11:13:27,30-Sep-21,0.0145,0.015,0.00021025,0.000225
11:13:27,30-Sep-21,0.0145,0.015,0.00021025,0.000225
11:13:27,30-Sep-21,0.0145,0.015,0.00021025,0.000225
11:13:27,30-Sep-21,0.0195,0.015,0.00038025,0.000225
11:13:27,30-Sep-21,0.0195,0.015,0.00038025,0.000225
11:13:27,30-Sep-21,0.0145,0.015,0.00021025,0.000225
11:13:27,30-Sep-21,0.0145,0.015,0.00021025,0.000225
11:13:27,30-Sep-21,0.0145,0.015,0.00021025,0.000225
11:13:27,30-Sep-21,0.0145,0.015,0.00021025,0.000225
11:13:27,30-Sep-21,0.0145,0.015,0.00021025,0.000225
11:13:27,30-Sep-21,0.0145,0.015,0.00021025,0.000225
11:13:27,30-Sep-21,0.0145,0.015,0.00021025,0.000225
11:13:27,30-Sep-21,0.0145,0.015,0.00021025,0.000225
11:13:27,30-Sep-21,0.0145,0.014,0.00021025,0.000196
11:13:27,30-Sep-21,0.0145,0.014,0.00021025,0.000196
11:13:27,30-Sep-21,0.0145,0.014,0.00021025,0.000196
11:13:27,30-Sep-21,0.0145,0.014,0.00021025,0.000196
11:13:28,30-Sep-21,0.0145,0.014,0.00021025,0.000196
11:13:28,30-Sep-21,0.0145,0.014,0.00021025,0.000196
11:13:28,30-Sep-21,0.0145,0.014,0.00021025,0.000196
11:13:28,30-Sep-21,0.0145,0.014,0.00021025,0.000196
11:13:28,30-Sep-21,0.0145,0.014,0.00021025,0.000196
11:13:28,30-Sep-21,0.0145,0.014,0.00021025,0.000196
11:13:28,30-Sep-21,0.0145,0.013,0.00021025,0.000169
11:13:28,30-Sep-21,0.0145,0.013,0.00021025,0.000169
11:13:28,30-Sep-21,0.0145,0.013,0.00021025,0.000169
11:13:28,30-Sep-21,0.0145,0.013,0.00021025,0.000169
11:13:28,30-Sep-21,0.0145,0.013,0.00021025,0.000169
11:13:28,30-Sep-21,0.0145,0.013,0.00021025,0.000169
11:13:28,30-Sep-21,0.0145,0.013,0.00021025,0.000169
11:13:28,30-Sep-21,0.0145,0.013,0.00021025,0.000169
11:13:28,30-Sep-21,0.0145,0.013,0.00021025,0.000169
11:13:28,30-Sep-21,0.01,0.013,0.0001,0.000169
11:13:28,30-Sep-21,0.01,0.012,0.0001,0.000144
11:13:28,30-Sep-21,0.01,0.012,0.0001,0.000144
11:13:28,30-Sep-21,0.01,0.012,0.0001,0.000144
11:13:28,30-Sep-21,0.01,0.012,0.0001,0.000144
11:13:28,30-Sep-21,0.01,0.012,0.0001,0.000144
11:13:28,30-Sep-21,0.01,0.012,0.0001,0.000144
11:13:28,30-Sep-21,0.01,0.012,0.0001,0.000144
11:13:28,30-Sep-21,0.01,0.012,0.0001,0.000144
11:13:28,30-Sep-21,0.01,0.012,0.0001,0.000144
11:13:28,30-Sep-21,0.01,0.012,0.0001,0.000144
11:13:28,30-Sep-21,0.01,0.013,0.0001,0.000169
11:13:28,30-Sep-21,0.01,0.013,0.0001,0.000169
11:13:28,30-Sep-21,0.01,0.013,0.0001,0.000169
11:13:28,30-Sep-21,0.01,0.013,0.0001,0.000169
11:13:28,30-Sep-21,0.0145,0.013,0.00021025,0.000169
11:13:28,30-Sep-21,0.0145,0.013,0.00021025,0.000169
11:13:28,30-Sep-21,0.0145,0.013,0.00021025,0.000169
11:13:28,30-Sep-21,0.0145,0.013,0.00021025,0.000169
11:13:28,30-Sep-21,0.0145,0.013,0.00021025,0.000169
11:13:28,30-Sep-21,0.0145,0.014,0.00021025,0.000196
11:13:28,30-Sep-21,0.0145,0.014,0.00021025,0.000196
11:13:28,30-Sep-21,0.0145,0.014,0.00021025,0.000196
11:13:28,30-Sep-21,0.0195,0.014,0.00038025,0.000196
11:13:28,30-Sep-21,0.0195,0.014,0.00038025,0.000196
11:13:28,30-Sep-21,0.0145,0.014,0.00021025,0.000196
11:13:28,30-Sep-21,0.0145,0.014,0.00021025,0.000196
11:13:28,30-Sep-21,0.0145,0.014,0.00021025,0.000196
11:13:28,30-Sep-21,0.0195,0.014,0.00038025,0.000196
11:13:28,30-Sep-21,0.0145,0.014,0.00021025,0.000196
11:13:28,30-Sep-21,0.0145,0.015,0.00021025,0.000225
11:13:28,30-Sep-21,0.0145,0.015,0.00021025,0.000225
11:13:28,30-Sep-21,0.0145,0.015,0.00021025,0.000225
11:13:28,30-Sep-21,0.0145,0.015,0.00021025,0.000225
11:13:28,30-Sep-21,0.0145,0.015,0.00021025,0.000225
11:13:28,30-Sep-21,0.0145,0.015,0.00021025,0.000225
11:13:28,30-Sep-21,0.0145,0.015,0.00021025,0.000225
11:13:28,30-Sep-21,0.0145,0.015,0.00021025,0.000225
11:13:28,30-Sep-21,0.0145,0.015,0.00021025,0.000225
11:13:28,30-Sep-21,0.0145,0.015,0.00021025,0.000225
11:13:28,30-Sep-21,0.0145,0.015,0.00021025,0.000225
11:13:28,30-Sep-21,0.0145,0.015,0.00021025,0.000225
11:13:28,30-Sep-21,0.0145,0.015,0.00021025,0.000225
11:13:28,30-Sep-21,0.0145,0.015,0.00021025,0.000225
11:13:28,30-Sep-21,0.0145,0.015,0.00021025,0.000225
11:13:28,30-Sep-21,0.0145,0.015,0.00021025,0.000225
11:13:28,30-Sep-21,0.0145,0.015,0.00021025,0.000225
11:13:28,30-Sep-21,0.0145,0.015,0.00021025,0.000225
11:13:28,30-Sep-21,0.0145,0.015,0.00021025,0.000225
11:13:28,30-Sep-21,0.0145,0.015,0.00021025,0.000225
11:13:28,30-Sep-21,0.0145,0.015,0.00021025,0.000225
11:13:28,30-Sep-21,0.0145,0.015,0.00021025,0.000225
11:13:28,30-Sep-21,0.0145,0.015,0.00021025,0.000225
11:13:28,30-Sep-21,0.0145,0.015,0.00021025,0.000225
11:13:28,30-Sep-21,0.0145,0.015,0.00021025,0.000225
11:13:28,30-Sep-21,0.0145,0.015,0.00021025,0.000225
11:13:28,30-Sep-21,0.0145,0.015,0.00021025,0.000225
11:13:28,30-Sep-21,0.0145,0.015,0.00021025,0.000225
11:13:28,30-Sep-21,0.0145,0.015,0.00021025,0.000225
11:13:28,30-Sep-21,0.0145,0.015,0.00021025,0.000225
11:13:28,30-Sep-21,0.0145,0.015,0.00021025,0.000225
11:13:28,30-Sep-21,0.0145,0.015,0.00021025,0.000225
11:13:28,30-Sep-21,0.0145,0.015,0.00021025,0.000225
11:13:28,30-Sep-21,0.0145,0.014,0.00021025,0.000196
11:13:28,30-Sep-21,0.0145,0.014,0.00021025,0.000196
11:13:28,30-Sep-21,0.0145,0.014,0.00021025,0.000196
11:13:28,30-Sep-21,0.0145,0.014,0.00021025,0.000196
11:13:28,30-Sep-21,0.0145,0.014,0.00021025,0.000196
11:13:28,30-Sep-21,0.0145,0.014,0.00021025,0.000196
11:13:28,30-Sep-21,0.0145,0.014,0.00021025,0.000196
11:13:28,30-Sep-21,0.0145,0.014,0.00021025,0.000196
11:13:28,30-Sep-21,0.0145,0.014,0.00021025,0.000196
11:13:28,30-Sep-21,0.0145,0.014,0.00021025,0.000196
11:13:28,30-Sep-21,0.0145,0.014,0.00021025,0.000196
11:13:28,30-Sep-21,0.0145,0.014,0.00021025,0.000196
11:13:28,30-Sep-21,0.0145,0.014,0.00021025,0.000196
11:13:28,30-Sep-21,0.0145,0.014,0.00021025,0.000196
11:13:28,30-Sep-21,0.0145,0.014,0.00021025,0.000196
11:13:28,30-Sep-21,0.0145,0.014,0.00021025,0.000196
11:13:28,30-Sep-21,0.0145,0.014,0.00021025,0.000196
11:13:28,30-Sep-21,0.0145,0.014,0.00021025,0.000196
11:13:28,30-Sep-21,0.0145,0.014,0.00021025,0.000196
11:13:28,30-Sep-21,0.0145,0.014,0.00021025,0.000196
11:13:28,30-Sep-21,0.0145,0.014,0.00021025,0.000196
11:13:28,30-Sep-21,0.0145,0.014,0.00021025,0.000196
11:13:28,30-Sep-21,0.0145,0.014,0.00021025,0.000196
11:13:28,30-Sep-21,0.0145,0.014,0.00021025,0.000196
11:13:28,30-Sep-21,0.0145,0.014,0.00021025,0.000196
11:13:28,30-Sep-21,0.0145,0.014,0.00021025,0.000196
11:13:28,30-Sep-21,0.0145,0.015,0.00021025,0.000225
11:13:28,30-Sep-21,0.0145,0.015,0.00021025,0.000225
11:13:28,30-Sep-21,0.0145,0.015,0.00021025,0.000225
11:13:28,30-Sep-21,0.0145,0.015,0.00021025,0.000225
11:13:28,30-Sep-21,0.0145,0.015,0.00021025,0.000225
11:13:29,30-Sep-21,0.0145,0.015,0.00021025,0.000225
11:13:29,30-Sep-21,0.0145,0.015,0.00021025,0.000225
11:13:29,30-Sep-21,0.0145,0.015,0.00021025,0.000225
11:13:29,30-Sep-21,0.0145,0.015,0.00021025,0.000225
11:13:29,30-Sep-21,0.0145,0.015,0.00021025,0.000225
11:13:29,30-Sep-21,0.0145,0.015,0.00021025,0.000225
11:13:29,30-Sep-21,0.0145,0.015,0.00021025,0.000225
11:13:29,30-Sep-21,0.0145,0.015,0.00021025,0.000225
11:13:29,30-Sep-21,0.0145,0.015,0.00021025,0.000225
11:13:29,30-Sep-21,0.0145,0.015,0.00021025,0.000225
11:13:29,30-Sep-21,0.0145,0.015,0.00021025,0.000225
11:13:29,30-Sep-21,0.0145,0.015,0.00021025,0.000225
11:13:29,30-Sep-21,0.0145,0.015,0.00021025,0.000225
11:13:29,30-Sep-21,0.0145,0.015,0.00021025,0.000225
11:13:29,30-Sep-21,0.0145,0.015,0.00021025,0.000225
11:13:29,30-Sep-21,0.0145,0.015,0.00021025,0.000225
11:13:29,30-Sep-21,0.0145,0.015,0.00021025,0.000225
11:13:29,30-Sep-21,0.0145,0.014,0.00021025,0.000196
11:13:29,30-Sep-21,0.0145,0.014,0.00021025,0.000196
11:13:29,30-Sep-21,0.0145,0.014,0.00021025,0.000196
11:13:29,30-Sep-21,0.0145,0.014,0.00021025,0.000196
11:13:29,30-Sep-21,0.0145,0.014,0.00021025,0.000196
11:13:29,30-Sep-21,0.0145,0.014,0.00021025,0.000196
11:13:29,30-Sep-21,0.0145,0.014,0.00021025,0.000196
11:13:29,30-Sep-21,0.0145,0.014,0.00021025,0.000196
11:13:29,30-Sep-21,0.0145,0.014,0.00021025,0.000196
11:13:29,30-Sep-21,0.0145,0.014,0.00021025,0.000196
11:13:29,30-Sep-21,0.0145,0.014,0.00021025,0.000196
11:13:29,30-Sep-21,0.0145,0.014,0.00021025,0.000196
11:13:29,30-Sep-21,0.0145,0.014,0.00021025,0.000196
11:13:29,30-Sep-21,0.0145,0.014,0.00021025,0.000196
11:13:29,30-Sep-21,0.0145,0.014,0.00021025,0.000196
11:13:29,30-Sep-21,0.0145,0.014,0.00021025,0.000196
11:13:29,30-Sep-21,0.0145,0.014,0.00021025,0.000196
11:13:29,30-Sep-21,0.0145,0.014,0.00021025,0.000196
11:13:29,30-Sep-21,0.0145,0.014,0.00021025,0.000196
11:13:29,30-Sep-21,0.0145,0.014,0.00021025,0.000196
11:13:29,30-Sep-21,0.0145,0.014,0.00021025,0.000196
11:13:29,30-Sep-21,0.0145,0.014,0.00021025,0.000196
11:13:29,30-Sep-21,0.0145,0.014,0.00021025,0.000196
11:13:29,30-Sep-21,0.0145,0.014,0.00021025,0.000196
11:13:29,30-Sep-21,0.0145,0.014,0.00021025,0.000196
11:13:29,30-Sep-21,0.0145,0.014,0.00021025,0.000196
11:13:29,30-Sep-21,0.0145,0.014,0.00021025,0.000196
11:13:29,30-Sep-21,0.0145,0.014,0.00021025,0.000196
11:13:29,30-Sep-21,0.0145,0.014,0.00021025,0.000196
11:13:29,30-Sep-21,0.0145,0.014,0.00021025,0.000196
11:13:29,30-Sep-21,0.0145,0.015,0.00021025,0.000225
11:13:29,30-Sep-21,0.0145,0.015,0.00021025,0.000225
11:13:29,30-Sep-21,0.0145,0.015,0.00021025,0.000225
11:13:29,30-Sep-21,0.0145,0.015,0.00021025,0.000225
11:13:29,30-Sep-21,0.0145,0.015,0.00021025,0.000225
11:13:29,30-Sep-21,0.0145,0.015,0.00021025,0.000225
11:13:29,30-Sep-21,0.0145,0.015,0.00021025,0.000225
11:13:29,30-Sep-21,0.0145,0.015,0.00021025,0.000225
11:13:29,30-Sep-21,0.0145,0.015,0.00021025,0.000225
11:13:29,30-Sep-21,0.0145,0.015,0.00021025,0.000225
11:13:29,30-Sep-21,0.0145,0.015,0.00021025,0.000225
11:13:29,30-Sep-21,0.0145,0.015,0.00021025,0.000225
11:13:29,30-Sep-21,0.0145,0.015,0.00021025,0.000225
11:13:29,30-Sep-21,0.0145,0.015,0.00021025,0.000225
11:13:29,30-Sep-21,0.0145,0.015,0.00021025,0.000225
11:13:29,30-Sep-21,0.0145,0.016,0.00021025,0.000256
11:13:29,30-Sep-21,0.0145,0.016,0.00021025,0.000256
11:13:29,30-Sep-21,0.0145,0.016,0.00021025,0.000256
11:13:29,30-Sep-21,0.0145,0.016,0.00021025,0.000256
11:13:29,30-Sep-21,0.0145,0.016,0.00021025,0.000256
11:13:29,30-Sep-21,0.0145,0.016,0.00021025,0.000256
11:13:29,30-Sep-21,0.0145,0.016,0.00021025,0.000256
11:13:29,30-Sep-21,0.0145,0.016,0.00021025,0.000256
11:13:29,30-Sep-21,0.0195,0.016,0.00038025,0.000256
11:13:29,30-Sep-21,0.0195,0.016,0.00038025,0.000256
11:13:29,30-Sep-21,0.0195,0.016,0.00038025,0.000256
11:13:29,30-Sep-21,0.0195,0.016,0.00038025,0.000256
11:13:29,30-Sep-21,0.0145,0.016,0.00021025,0.000256
11:13:29,30-Sep-21,0.0145,0.016,0.00021025,0.000256
11:13:29,30-Sep-21,0.0195,0.016,0.00038025,0.000256
11:13:29,30-Sep-21,0.0195,0.016,0.00038025,0.000256
11:13:29,30-Sep-21,0.0195,0.016,0.00038025,0.000256
11:13:29,30-Sep-21,0.0195,0.016,0.00038025,0.000256
11:13:29,30-Sep-21,0.0195,0.016,0.00038025,0.000256
11:13:29,30-Sep-21,0.0195,0.016,0.00038025,0.000256
11:13:29,30-Sep-21,0.0145,0.016,0.00021025,0.000256
11:13:29,30-Sep-21,0.0145,0.016,0.00021025,0.000256
11:13:29,30-Sep-21,0.0145,0.016,0.00021025,0.000256
11:13:29,30-Sep-21,0.0145,0.016,0.00021025,0.000256
11:13:29,30-Sep-21,0.0145,0.016,0.00021025,0.000256
11:13:29,30-Sep-21,0.0145,0.016,0.00021025,0.000256
11:13:29,30-Sep-21,0.0145,0.015,0.00021025,0.000225
11:13:29,30-Sep-21,0.0145,0.015,0.00021025,0.000225
11:13:29,30-Sep-21,0.0145,0.015,0.00021025,0.000225
11:13:29,30-Sep-21,0.0145,0.015,0.00021025,0.000225
11:13:29,30-Sep-21,0.0145,0.015,0.00021025,0.000225
11:13:29,30-Sep-21,0.0145,0.015,0.00021025,0.000225
11:13:29,30-Sep-21,0.0145,0.015,0.00021025,0.000225
11:13:29,30-Sep-21,0.0145,0.015,0.00021025,0.000225
11:13:30,30-Sep-21,0.0145,0.015,0.00021025,0.000225
11:13:30,30-Sep-21,0.0145,0.015,0.00021025,0.000225
11:13:30,30-Sep-21,0.0145,0.015,0.00021025,0.000225
11:13:30,30-Sep-21,0.0145,0.014,0.00021025,0.000196
11:13:30,30-Sep-21,0.0145,0.014,0.00021025,0.000196
11:13:30,30-Sep-21,0.0145,0.014,0.00021025,0.000196
11:13:30,30-Sep-21,0.0145,0.014,0.00021025,0.000196
11:13:30,30-Sep-21,0.0145,0.014,0.00021025,0.000196
11:13:30,30-Sep-21,0.01,0.014,0.0001,0.000196
11:13:30,30-Sep-21,0.01,0.014,0.0001,0.000196
11:13:30,30-Sep-21,0.01,0.014,0.0001,0.000196
11:13:30,30-Sep-21,0.0145,0.014,0.00021025,0.000196
11:13:30,30-Sep-21,0.0145,0.014,0.00021025,0.000196
11:13:30,30-Sep-21,0.0145,0.014,0.00021025,0.000196
11:13:30,30-Sep-21,0.0145,0.014,0.00021025,0.000196
11:13:30,30-Sep-21,0.0145,0.014,0.00021025,0.000196
11:13:30,30-Sep-21,0.0145,0.014,0.00021025,0.000196
11:13:30,30-Sep-21,0.0145,0.014,0.00021025,0.000196
11:13:30,30-Sep-21,0.0145,0.014,0.00021025,0.000196
11:13:30,30-Sep-21,0.0145,0.014,0.00021025,0.000196
11:13:30,30-Sep-21,0.0145,0.014,0.00021025,0.000196
11:13:30,30-Sep-21,0.0145,0.014,0.00021025,0.000196
11:13:30,30-Sep-21,0.0145,0.014,0.00021025,0.000196
11:13:30,30-Sep-21,0.0145,0.014,0.00021025,0.000196
11:13:30,30-Sep-21,0.0145,0.014,0.00021025,0.000196
11:13:30,30-Sep-21,0.0145,0.014,0.00021025,0.000196
11:13:30,30-Sep-21,0.0145,0.014,0.00021025,0.000196
11:13:30,30-Sep-21,0.0145,0.014,0.00021025,0.000196
11:13:30,30-Sep-21,0.0145,0.014,0.00021025,0.000196
11:13:30,30-Sep-21,0.0145,0.014,0.00021025,0.000196
11:13:30,30-Sep-21,0.0145,0.014,0.00021025,0.000196
11:13:30,30-Sep-21,0.0145,0.014,0.00021025,0.000196
11:13:30,30-Sep-21,0.0145,0.014,0.00021025,0.000196
11:13:30,30-Sep-21,0.0145,0.014,0.00021025,0.000196
11:13:30,30-Sep-21,0.01,0.014,0.0001,0.000196
11:13:30,30-Sep-21,0.01,0.013,0.0001,0.000169
11:13:30,30-Sep-21,0.01,0.013,0.0001,0.000169
11:13:30,30-Sep-21,0.01,0.013,0.0001,0.000169
11:13:30,30-Sep-21,0.0145,0.013,0.00021025,0.000169
11:13:30,30-Sep-21,0.0145,0.013,0.00021025,0.000169
11:13:30,30-Sep-21,0.0145,0.013,0.00021025,0.000169
11:13:30,30-Sep-21,0.0145,0.013,0.00021025,0.000169
11:13:30,30-Sep-21,0.0145,0.013,0.00021025,0.000169
11:13:30,30-Sep-21,0.0145,0.013,0.00021025,0.000169
11:13:30,30-Sep-21,0.0145,0.013,0.00021025,0.000169
11:13:30,30-Sep-21,0.0145,0.013,0.00021025,0.000169
11:13:30,30-Sep-21,0.0145,0.013,0.00021025,0.000169
11:13:30,30-Sep-21,0.0145,0.013,0.00021025,0.000169
11:13:30,30-Sep-21,0.0145,0.013,0.00021025,0.000169
11:13:30,30-Sep-21,0.0145,0.013,0.00021025,0.000169
11:13:30,30-Sep-21,0.0145,0.013,0.00021025,0.000169
11:13:30,30-Sep-21,0.0145,0.013,0.00021025,0.000169
11:13:30,30-Sep-21,0.0145,0.012,0.00021025,0.000144
11:13:30,30-Sep-21,0.01,0.012,0.0001,0.000144
11:13:30,30-Sep-21,0.01,0.012,0.0001,0.000144
11:13:30,30-Sep-21,0.01,0.012,0.0001,0.000144
11:13:30,30-Sep-21,0.01,0.012,0.0001,0.000144
11:13:30,30-Sep-21,0.01,0.012,0.0001,0.000144
11:13:30,30-Sep-21,0.01,0.012,0.0001,0.000144
11:13:30,30-Sep-21,0.01,0.012,0.0001,0.000144
11:13:30,30-Sep-21,0.01,0.012,0.0001,0.000144
11:13:30,30-Sep-21,0.01,0.012,0.0001,0.000144
11:13:30,30-Sep-21,0.01,0.012,0.0001,0.000144
11:13:30,30-Sep-21,0.01,0.013,0.0001,0.000169
11:13:30,30-Sep-21,0.01,0.013,0.0001,0.000169
11:13:30,30-Sep-21,0.01,0.013,0.0001,0.000169
11:13:30,30-Sep-21,0.0145,0.013,0.00021025,0.000169
11:13:30,30-Sep-21,0.0145,0.013,0.00021025,0.000169
11:13:30,30-Sep-21,0.0145,0.013,0.00021025,0.000169
11:13:30,30-Sep-21,0.0145,0.013,0.00021025,0.000169
11:13:30,30-Sep-21,0.0145,0.013,0.00021025,0.000169
11:13:30,30-Sep-21,0.0145,0.013,0.00021025,0.000169
11:13:30,30-Sep-21,0.0145,0.013,0.00021025,0.000169
11:13:30,30-Sep-21,0.0145,0.013,0.00021025,0.000169
11:13:30,30-Sep-21,0.0145,0.013,0.00021025,0.000169
11:13:30,30-Sep-21,0.0145,0.014,0.00021025,0.000196
11:13:30,30-Sep-21,0.0145,0.014,0.00021025,0.000196
11:13:30,30-Sep-21,0.0145,0.014,0.00021025,0.000196
11:13:30,30-Sep-21,0.0145,0.014,0.00021025,0.000196
11:13:30,30-Sep-21,0.0145,0.014,0.00021025,0.000196
11:13:30,30-Sep-21,0.0145,0.014,0.00021025,0.000196
11:13:30,30-Sep-21,0.0145,0.014,0.00021025,0.000196
11:13:30,30-Sep-21,0.0145,0.014,0.00021025,0.000196
11:13:30,30-Sep-21,0.0145,0.014,0.00021025,0.000196
11:13:30,30-Sep-21,0.0145,0.014,0.00021025,0.000196
11:13:30,30-Sep-21,0.0145,0.014,0.00021025,0.000196
11:13:30,30-Sep-21,0.0145,0.014,0.00021025,0.000196
11:13:30,30-Sep-21,0.0145,0.014,0.00021025,0.000196
11:13:30,30-Sep-21,0.0145,0.014,0.00021025,0.000196
11:13:30,30-Sep-21,0.0145,0.015,0.00021025,0.000225
11:13:30,30-Sep-21,0.0145,0.015,0.00021025,0.000225
11:13:30,30-Sep-21,0.0145,0.015,0.00021025,0.000225
11:13:30,30-Sep-21,0.0145,0.015,0.00021025,0.000225
11:13:30,30-Sep-21,0.0145,0.015,0.00021025,0.000225
11:13:30,30-Sep-21,0.0145,0.015,0.00021025,0.000225
11:13:30,30-Sep-21,0.0145,0.015,0.00021025,0.000225
11:13:30,30-Sep-21,0.0145,0.015,0.00021025,0.000225
11:13:30,30-Sep-21,0.0145,0.015,0.00021025,0.000225
11:13:30,30-Sep-21,0.0145,0.015,0.00021025,0.000225
11:13:30,30-Sep-21,0.0145,0.015,0.00021025,0.000225
11:13:30,30-Sep-21,0.0145,0.015,0.00021025,0.000225
11:13:30,30-Sep-21,0.0145,0.015,0.00021025,0.000225
11:13:30,30-Sep-21,0.0145,0.015,0.00021025,0.000225
11:13:30,30-Sep-21,0.0145,0.015,0.00021025,0.000225
11:13:30,30-Sep-21,0.0145,0.015,0.00021025,0.000225
11:13:30,30-Sep-21,0.0145,0.015,0.00021025,0.000225
11:13:30,30-Sep-21,0.0145,0.015,0.00021025,0.000225
11:13:30,30-Sep-21,0.0145,0.015,0.00021025,0.000225
11:13:31,30-Sep-21,0.0145,0.015,0.00021025,0.000225
11:13:31,30-Sep-21,0.0145,0.015,0.00021025,0.000225
11:13:31,30-Sep-21,0.0145,0.015,0.00021025,0.000225
11:13:31,30-Sep-21,0.0145,0.015,0.00021025,0.000225
11:13:31,30-Sep-21,0.0145,0.015,0.00021025,0.000225
11:13:31,30-Sep-21,0.0145,0.015,0.00021025,0.000225
11:13:31,30-Sep-21,0.0145,0.015,0.00021025,0.000225
11:13:31,30-Sep-21,0.0145,0.015,0.00021025,0.000225
11:13:31,30-Sep-21,0.0145,0.015,0.00021025,0.000225
11:13:31,30-Sep-21,0.0145,0.015,0.00021025,0.000225
11:13:31,30-Sep-21,0.0145,0.015,0.00021025,0.000225
11:13:31,30-Sep-21,0.0145,0.014,0.00021025,0.000196
11:13:31,30-Sep-21,0.0145,0.014,0.00021025,0.000196
11:13:31,30-Sep-21,0.0145,0.014,0.00021025,0.000196
11:13:31,30-Sep-21,0.0145,0.014,0.00021025,0.000196
11:13:31,30-Sep-21,0.0145,0.014,0.00021025,0.000196
11:13:31,30-Sep-21,0.0145,0.014,0.00021025,0.000196
11:13:31,30-Sep-21,0.0145,0.014,0.00021025,0.000196
11:13:31,30-Sep-21,0.0145,0.014,0.00021025,0.000196
11:13:31,30-Sep-21,0.0145,0.014,0.00021025,0.000196
11:13:31,30-Sep-21,0.0145,0.014,0.00021025,0.000196
11:13:31,30-Sep-21,0.0145,0.014,0.00021025,0.000196
11:13:31,30-Sep-21,0.0145,0.014,0.00021025,0.000196
11:13:31,30-Sep-21,0.0145,0.014,0.00021025,0.000196
11:13:31,30-Sep-21,0.0145,0.014,0.00021025,0.000196
11:13:31,30-Sep-21,0.0145,0.014,0.00021025,0.000196
11:13:31,30-Sep-21,0.0145,0.014,0.00021025,0.000196
11:13:31,30-Sep-21,0.0145,0.014,0.00021025,0.000196
11:13:31,30-Sep-21,0.0145,0.014,0.00021025,0.000196
11:13:31,30-Sep-21,0.0145,0.014,0.00021025,0.000196
11:13:31,30-Sep-21,0.0145,0.014,0.00021025,0.000196
11:13:31,30-Sep-21,0.0145,0.014,0.00021025,0.000196
11:13:31,30-Sep-21,0.0145,0.014,0.00021025,0.000196
11:13:31,30-Sep-21,0.0145,0.014,0.00021025,0.000196
11:13:31,30-Sep-21,0.0145,0.014,0.00021025,0.000196
11:13:31,30-Sep-21,0.0145,0.014,0.00021025,0.000196
11:13:31,30-Sep-21,0.0145,0.014,0.00021025,0.000196
11:13:31,30-Sep-21,0.0145,0.014,0.00021025,0.000196
11:13:31,30-Sep-21,0.0145,0.014,0.00021025,0.000196
11:13:31,30-Sep-21,0.0145,0.015,0.00021025,0.000225
11:13:31,30-Sep-21,0.0145,0.015,0.00021025,0.000225
11:13:31,30-Sep-21,0.0145,0.015,0.00021025,0.000225
11:13:31,30-Sep-21,0.0145,0.015,0.00021025,0.000225
11:13:31,30-Sep-21,0.0145,0.015,0.00021025,0.000225
11:13:31,30-Sep-21,0.0145,0.015,0.00021025,0.000225
11:13:31,30-Sep-21,0.0145,0.015,0.00021025,0.000225
11:13:31,30-Sep-21,0.0145,0.015,0.00021025,0.000225
11:13:31,30-Sep-21,0.0145,0.015,0.00021025,0.000225
11:13:31,30-Sep-21,0.0145,0.015,0.00021025,0.000225
11:13:31,30-Sep-21,0.0145,0.015,0.00021025,0.000225
