Time,Date,EMG Value (V),Filtered Value (V),,
10:22:34,30-Sep-21,1.256,1.256,1.577536,1.577536
10:22:34,30-Sep-21,1.227,1.252,1.505529,1.567504
10:22:34,30-Sep-21,1.212,1.249,1.468944,1.560001
10:22:34,30-Sep-21,1.212,1.245,1.468944,1.550025
10:22:34,30-Sep-21,1.207,1.241,1.456849,1.540081
10:22:34,30-Sep-21,1.212,1.237,1.468944,1.530169
10:22:34,30-Sep-21,1.212,1.233,1.468944,1.520289
10:22:34,30-Sep-21,1.2315,1.23,1.51659225,1.5129
10:22:34,30-Sep-21,1.2315,1.226,1.51659225,1.503076
10:22:34,30-Sep-21,1.2315,1.222,1.51659225,1.493284
10:22:34,30-Sep-21,1.2315,1.218,1.51659225,1.483524
10:22:34,30-Sep-21,1.222,1.214,1.493284,1.473796
10:22:34,30-Sep-21,1.222,1.211,1.493284,1.466521
10:22:34,30-Sep-21,1.222,1.207,1.493284,1.456849
10:22:34,30-Sep-21,1.212,1.204,1.468944,1.449616
10:22:34,30-Sep-21,1.212,1.2,1.468944,1.44
10:22:34,30-Sep-21,1.2025,1.197,1.44600625,1.432809
10:22:34,30-Sep-21,1.2025,1.194,1.44600625,1.425636
10:22:34,30-Sep-21,1.183,1.191,1.399489,1.418481
10:22:34,30-Sep-21,1.183,1.188,1.399489,1.411344
10:22:34,30-Sep-21,1.173,1.186,1.375929,1.406596
10:22:34,30-Sep-21,1.173,1.183,1.375929,1.399489
10:22:34,30-Sep-21,1.173,1.181,1.375929,1.394761
10:22:34,30-Sep-21,1.1585,1.179,1.34212225,1.390041
10:22:34,30-Sep-21,1.1535,1.177,1.33056225,1.385329
10:22:34,30-Sep-21,1.1535,1.175,1.33056225,1.380625
10:22:34,30-Sep-21,1.1535,1.174,1.33056225,1.378276
10:22:34,30-Sep-21,1.168,1.173,1.364224,1.375929
10:22:34,30-Sep-21,1.168,1.172,1.364224,1.373584
10:22:34,30-Sep-21,1.168,1.171,1.364224,1.371241
10:22:34,30-Sep-21,1.168,1.17,1.364224,1.3689
10:22:34,30-Sep-21,1.183,1.17,1.399489,1.3689
10:22:34,30-Sep-21,1.183,1.169,1.399489,1.366561
10:22:34,30-Sep-21,1.183,1.169,1.399489,1.366561
10:22:34,30-Sep-21,1.183,1.169,1.399489,1.366561
10:22:34,30-Sep-21,1.183,1.169,1.399489,1.366561
10:22:34,30-Sep-21,1.183,1.169,1.399489,1.366561
10:22:34,30-Sep-21,1.183,1.169,1.399489,1.366561
10:22:34,30-Sep-21,1.168,1.17,1.364224,1.3689
10:22:34,30-Sep-21,1.168,1.17,1.364224,1.3689
10:22:34,30-Sep-21,1.163,1.17,1.352569,1.3689
10:22:34,30-Sep-21,1.163,1.171,1.352569,1.371241
10:22:34,30-Sep-21,1.1535,1.171,1.33056225,1.371241
10:22:34,30-Sep-21,1.1535,1.172,1.33056225,1.373584
10:22:34,30-Sep-21,1.1535,1.172,1.33056225,1.373584
10:22:34,30-Sep-21,1.1535,1.173,1.33056225,1.375929
10:22:34,30-Sep-21,1.1535,1.173,1.33056225,1.375929
10:22:34,30-Sep-21,1.1535,1.174,1.33056225,1.378276
10:22:34,30-Sep-21,1.163,1.174,1.352569,1.378276
10:22:34,30-Sep-21,1.163,1.175,1.352569,1.380625
10:22:34,30-Sep-21,1.1925,1.175,1.42205625,1.380625
10:22:34,30-Sep-21,1.1925,1.175,1.42205625,1.380625
10:22:34,30-Sep-21,1.1925,1.175,1.42205625,1.380625
10:22:34,30-Sep-21,1.2025,1.175,1.44600625,1.380625
10:22:34,30-Sep-21,1.2025,1.175,1.44600625,1.380625
10:22:34,30-Sep-21,1.207,1.175,1.456849,1.380625
10:22:34,30-Sep-21,1.207,1.174,1.456849,1.378276
10:22:34,30-Sep-21,1.2025,1.174,1.44600625,1.378276
10:22:34,30-Sep-21,1.2025,1.173,1.44600625,1.375929
10:22:34,30-Sep-21,1.1975,1.172,1.43400625,1.373584
10:22:34,30-Sep-21,1.1975,1.171,1.43400625,1.371241
10:22:34,30-Sep-21,1.173,1.17,1.375929,1.3689
10:22:34,30-Sep-21,1.163,1.169,1.352569,1.366561
10:22:34,30-Sep-21,1.163,1.168,1.352569,1.364224
10:22:34,30-Sep-21,1.163,1.167,1.352569,1.361889
10:22:34,30-Sep-21,1.163,1.166,1.352569,1.359556
10:22:34,30-Sep-21,1.1435,1.165,1.30759225,1.357225
10:22:34,30-Sep-21,1.1435,1.163,1.30759225,1.352569
10:22:34,30-Sep-21,1.129,1.162,1.274641,1.350244
10:22:34,30-Sep-21,1.129,1.161,1.274641,1.347921
10:22:34,30-Sep-21,1.139,1.16,1.297321,1.3456
10:22:34,30-Sep-21,1.139,1.158,1.297321,1.340964
10:22:34,30-Sep-21,1.139,1.157,1.297321,1.338649
10:22:34,30-Sep-21,1.139,1.156,1.297321,1.336336
10:22:34,30-Sep-21,1.139,1.155,1.297321,1.334025
10:22:34,30-Sep-21,1.1485,1.154,1.31905225,1.331716
10:22:34,30-Sep-21,1.1485,1.153,1.31905225,1.329409
10:22:34,30-Sep-21,1.1485,1.152,1.31905225,1.327104
10:22:34,30-Sep-21,1.1485,1.151,1.31905225,1.324801
10:22:34,30-Sep-21,1.1485,1.15,1.31905225,1.3225
10:22:34,30-Sep-21,1.1485,1.149,1.31905225,1.320201
10:22:34,30-Sep-21,1.1485,1.149,1.31905225,1.320201
10:22:34,30-Sep-21,1.1485,1.148,1.31905225,1.317904
10:22:34,30-Sep-21,1.1535,1.147,1.33056225,1.315609
10:22:34,30-Sep-21,1.1535,1.146,1.33056225,1.313316
10:22:34,30-Sep-21,1.1535,1.145,1.33056225,1.311025
10:22:34,30-Sep-21,1.1535,1.144,1.33056225,1.308736
10:22:34,30-Sep-21,1.1585,1.143,1.34212225,1.306449
10:22:34,30-Sep-21,1.1585,1.142,1.34212225,1.304164
10:22:34,30-Sep-21,1.1585,1.142,1.34212225,1.304164
10:22:34,30-Sep-21,1.1535,1.141,1.33056225,1.301881
10:22:34,30-Sep-21,1.1535,1.139,1.33056225,1.297321
10:22:34,30-Sep-21,1.1535,1.138,1.33056225,1.295044
10:22:34,30-Sep-21,1.1535,1.137,1.33056225,1.292769
10:22:34,30-Sep-21,1.139,1.136,1.297321,1.290496
10:22:34,30-Sep-21,1.139,1.135,1.297321,1.288225
10:22:34,30-Sep-21,1.139,1.134,1.297321,1.285956
10:22:34,30-Sep-21,1.139,1.133,1.297321,1.283689
10:22:34,30-Sep-21,1.139,1.132,1.297321,1.281424
10:22:34,30-Sep-21,1.139,1.131,1.297321,1.279161
10:22:34,30-Sep-21,1.139,1.13,1.297321,1.2769
10:22:34,30-Sep-21,1.129,1.129,1.274641,1.274641
10:22:34,30-Sep-21,1.129,1.128,1.274641,1.272384
10:22:34,30-Sep-21,1.129,1.127,1.274641,1.270129
10:22:34,30-Sep-21,1.1095,1.126,1.23099025,1.267876
10:22:34,30-Sep-21,1.1095,1.126,1.23099025,1.267876
10:22:34,30-Sep-21,1.1095,1.125,1.23099025,1.265625
10:22:34,30-Sep-21,1.1045,1.125,1.21992025,1.265625
10:22:34,30-Sep-21,1.1045,1.125,1.21992025,1.265625
10:22:34,30-Sep-21,1.0995,1.124,1.20890025,1.263376
10:22:35,30-Sep-21,1.0995,1.124,1.20890025,1.263376
10:22:35,30-Sep-21,1.1045,1.124,1.21992025,1.263376
10:22:35,30-Sep-21,1.1045,1.124,1.21992025,1.263376
10:22:35,30-Sep-21,1.1045,1.124,1.21992025,1.263376
10:22:35,30-Sep-21,1.1045,1.125,1.21992025,1.265625
10:22:35,30-Sep-21,1.1145,1.125,1.24211025,1.265625
10:22:35,30-Sep-21,1.1145,1.125,1.24211025,1.265625
10:22:35,30-Sep-21,1.1435,1.126,1.30759225,1.267876
10:22:35,30-Sep-21,1.1435,1.126,1.30759225,1.267876
10:22:35,30-Sep-21,1.1485,1.127,1.31905225,1.270129
10:22:35,30-Sep-21,1.1485,1.127,1.31905225,1.270129
10:22:35,30-Sep-21,1.1485,1.128,1.31905225,1.272384
10:22:35,30-Sep-21,1.1485,1.128,1.31905225,1.272384
10:22:35,30-Sep-21,1.1485,1.129,1.31905225,1.274641
10:22:35,30-Sep-21,1.1485,1.129,1.31905225,1.274641
10:22:35,30-Sep-21,1.1485,1.129,1.31905225,1.274641
10:22:35,30-Sep-21,1.134,1.13,1.285956,1.2769
10:22:35,30-Sep-21,1.134,1.13,1.285956,1.2769
10:22:35,30-Sep-21,1.129,1.13,1.274641,1.2769
10:22:35,30-Sep-21,1.129,1.13,1.274641,1.2769
10:22:35,30-Sep-21,1.1195,1.13,1.25328025,1.2769
10:22:35,30-Sep-21,1.1195,1.13,1.25328025,1.2769
10:22:35,30-Sep-21,1.1195,1.13,1.25328025,1.2769
10:22:35,30-Sep-21,1.1195,1.13,1.25328025,1.2769
10:22:35,30-Sep-21,1.1195,1.129,1.25328025,1.274641
10:22:35,30-Sep-21,1.1195,1.129,1.25328025,1.274641
10:22:35,30-Sep-21,1.1145,1.129,1.24211025,1.274641
10:22:35,30-Sep-21,1.1145,1.128,1.24211025,1.272384
10:22:35,30-Sep-21,1.134,1.128,1.285956,1.272384
10:22:35,30-Sep-21,1.134,1.127,1.285956,1.270129
10:22:35,30-Sep-21,1.139,1.126,1.297321,1.267876
10:22:35,30-Sep-21,1.139,1.125,1.297321,1.265625
10:22:35,30-Sep-21,1.139,1.125,1.297321,1.265625
10:22:35,30-Sep-21,1.1485,1.124,1.31905225,1.263376
10:22:35,30-Sep-21,1.1485,1.123,1.31905225,1.261129
10:22:35,30-Sep-21,1.139,1.122,1.297321,1.258884
10:22:35,30-Sep-21,1.139,1.121,1.297321,1.256641
10:22:35,30-Sep-21,1.129,1.12,1.274641,1.2544
10:22:35,30-Sep-21,1.129,1.119,1.274641,1.252161
10:22:35,30-Sep-21,1.1195,1.119,1.25328025,1.252161
10:22:35,30-Sep-21,1.1195,1.118,1.25328025,1.249924
10:22:35,30-Sep-21,1.0995,1.117,1.20890025,1.247689
10:22:35,30-Sep-21,1.0995,1.116,1.20890025,1.245456
10:22:35,30-Sep-21,1.095,1.116,1.199025,1.245456
10:22:35,30-Sep-21,1.095,1.115,1.199025,1.243225
10:22:35,30-Sep-21,1.095,1.115,1.199025,1.243225
10:22:35,30-Sep-21,1.095,1.115,1.199025,1.243225
10:22:35,30-Sep-21,1.095,1.114,1.199025,1.240996
10:22:35,30-Sep-21,1.09,1.114,1.1881,1.240996
10:22:35,30-Sep-21,1.09,1.114,1.1881,1.240996
10:22:35,30-Sep-21,1.095,1.114,1.199025,1.240996
10:22:35,30-Sep-21,1.095,1.115,1.199025,1.243225
10:22:35,30-Sep-21,1.124,1.115,1.263376,1.243225
10:22:35,30-Sep-21,1.124,1.115,1.263376,1.243225
10:22:35,30-Sep-21,1.124,1.116,1.263376,1.245456
10:22:35,30-Sep-21,1.134,1.116,1.285956,1.245456
10:22:35,30-Sep-21,1.134,1.117,1.285956,1.247689
10:22:35,30-Sep-21,1.139,1.117,1.297321,1.247689
10:22:35,30-Sep-21,1.139,1.118,1.297321,1.249924
10:22:35,30-Sep-21,1.134,1.119,1.285956,1.252161
10:22:35,30-Sep-21,1.134,1.119,1.285956,1.252161
10:22:35,30-Sep-21,1.124,1.12,1.263376,1.2544
10:22:35,30-Sep-21,1.124,1.121,1.263376,1.256641
10:22:35,30-Sep-21,1.1145,1.122,1.24211025,1.258884
10:22:35,30-Sep-21,1.1145,1.122,1.24211025,1.258884
10:22:35,30-Sep-21,1.1145,1.123,1.24211025,1.261129
10:22:35,30-Sep-21,1.1145,1.123,1.24211025,1.261129
10:22:35,30-Sep-21,1.1095,1.124,1.23099025,1.263376
10:22:35,30-Sep-21,1.1095,1.125,1.23099025,1.265625
10:22:35,30-Sep-21,1.1045,1.125,1.21992025,1.265625
10:22:35,30-Sep-21,1.1045,1.125,1.21992025,1.265625
10:22:35,30-Sep-21,1.1045,1.126,1.21992025,1.267876
10:22:35,30-Sep-21,1.1045,1.126,1.21992025,1.267876
10:22:35,30-Sep-21,1.124,1.126,1.263376,1.267876
10:22:35,30-Sep-21,1.124,1.126,1.263376,1.267876
10:22:35,30-Sep-21,1.124,1.126,1.263376,1.267876
10:22:35,30-Sep-21,1.1435,1.126,1.30759225,1.267876
10:22:35,30-Sep-21,1.1435,1.126,1.30759225,1.267876
10:22:35,30-Sep-21,1.1585,1.126,1.34212225,1.267876
10:22:35,30-Sep-21,1.1585,1.126,1.34212225,1.267876
10:22:35,30-Sep-21,1.1585,1.125,1.34212225,1.265625
10:22:35,30-Sep-21,1.1585,1.125,1.34212225,1.265625
10:22:35,30-Sep-21,1.1585,1.124,1.34212225,1.263376
10:22:35,30-Sep-21,1.1485,1.123,1.31905225,1.261129
10:22:35,30-Sep-21,1.1485,1.123,1.31905225,1.261129
10:22:35,30-Sep-21,1.139,1.122,1.297321,1.258884
10:22:35,30-Sep-21,1.139,1.121,1.297321,1.256641
10:22:35,30-Sep-21,1.1195,1.121,1.25328025,1.256641
10:22:35,30-Sep-21,1.1195,1.12,1.25328025,1.2544
10:22:35,30-Sep-21,1.1095,1.12,1.23099025,1.2544
10:22:35,30-Sep-21,1.1095,1.12,1.23099025,1.2544
10:22:35,30-Sep-21,1.1095,1.12,1.23099025,1.2544
10:22:35,30-Sep-21,1.1045,1.12,1.21992025,1.2544
10:22:35,30-Sep-21,1.1045,1.12,1.21992025,1.2544
10:22:35,30-Sep-21,1.0995,1.121,1.20890025,1.256641
10:22:35,30-Sep-21,1.0995,1.122,1.20890025,1.258884
10:22:35,30-Sep-21,1.0995,1.123,1.20890025,1.261129
10:22:35,30-Sep-21,1.0995,1.125,1.20890025,1.265625
10:22:35,30-Sep-21,1.124,1.126,1.263376,1.267876
10:22:35,30-Sep-21,1.124,1.129,1.263376,1.274641
10:22:35,30-Sep-21,1.129,1.131,1.274641,1.279161
10:22:35,30-Sep-21,1.129,1.134,1.274641,1.285956
10:22:35,30-Sep-21,1.139,1.138,1.297321,1.295044
10:22:35,30-Sep-21,1.139,1.141,1.297321,1.301881
10:22:35,30-Sep-21,1.139,1.145,1.297321,1.311025
10:22:35,30-Sep-21,1.139,1.15,1.297321,1.3225
10:22:35,30-Sep-21,1.1585,1.155,1.34212225,1.334025
10:22:35,30-Sep-21,1.163,1.16,1.352569,1.3456
10:22:35,30-Sep-21,1.163,1.166,1.352569,1.359556
10:22:35,30-Sep-21,1.178,1.172,1.387684,1.373584
10:22:35,30-Sep-21,1.178,1.178,1.387684,1.387684
10:22:35,30-Sep-21,1.178,1.185,1.387684,1.404225
10:22:35,30-Sep-21,1.178,1.191,1.387684,1.418481
10:22:35,30-Sep-21,1.1925,1.199,1.42205625,1.437601
10:22:35,30-Sep-21,1.1925,1.206,1.42205625,1.454436
10:22:35,30-Sep-21,1.1925,1.214,1.42205625,1.473796
10:22:35,30-Sep-21,1.1925,1.221,1.42205625,1.490841
10:22:35,30-Sep-21,1.212,1.229,1.468944,1.510441
10:22:35,30-Sep-21,1.212,1.237,1.468944,1.530169
10:22:35,30-Sep-21,1.2415,1.245,1.54132225,1.550025
10:22:36,30-Sep-21,1.2415,1.253,1.54132225,1.570009
10:22:36,30-Sep-21,1.2805,1.262,1.63968025,1.592644
10:22:36,30-Sep-21,1.2805,1.27,1.63968025,1.6129
10:22:36,30-Sep-21,1.2805,1.278,1.63968025,1.633284
10:22:36,30-Sep-21,1.2805,1.286,1.63968025,1.653796
10:22:36,30-Sep-21,1.3245,1.293,1.75430025,1.671849
10:22:36,30-Sep-21,1.339,1.301,1.792921,1.692601
10:22:36,30-Sep-21,1.349,1.308,1.819801,1.710864
10:22:36,30-Sep-21,1.349,1.316,1.819801,1.731856
10:22:36,30-Sep-21,1.354,1.323,1.833316,1.750329
10:22:36,30-Sep-21,1.3585,1.329,1.84552225,1.766241
10:22:36,30-Sep-21,1.3585,1.336,1.84552225,1.784896
10:22:36,30-Sep-21,1.3585,1.342,1.84552225,1.800964
10:22:36,30-Sep-21,1.349,1.348,1.819801,1.817104
10:22:36,30-Sep-21,1.349,1.353,1.819801,1.830609
10:22:36,30-Sep-21,1.349,1.358,1.819801,1.844164
10:22:36,30-Sep-21,1.349,1.363,1.819801,1.857769
10:22:36,30-Sep-21,1.349,1.368,1.819801,1.871424
10:22:36,30-Sep-21,1.349,1.372,1.819801,1.882384
10:22:36,30-Sep-21,1.349,1.376,1.819801,1.893376
10:22:36,30-Sep-21,1.3585,1.379,1.84552225,1.901641
10:22:36,30-Sep-21,1.3585,1.382,1.84552225,1.909924
10:22:36,30-Sep-21,1.388,1.385,1.926544,1.918225
10:22:36,30-Sep-21,1.388,1.388,1.926544,1.926544
10:22:36,30-Sep-21,1.388,1.39,1.926544,1.9321
10:22:36,30-Sep-21,1.398,1.392,1.954404,1.937664
10:22:36,30-Sep-21,1.398,1.393,1.954404,1.940449
10:22:36,30-Sep-21,1.4125,1.394,1.99515625,1.943236
10:22:36,30-Sep-21,1.4125,1.395,1.99515625,1.946025
10:22:36,30-Sep-21,1.4125,1.396,1.99515625,1.948816
10:22:36,30-Sep-21,1.4125,1.396,1.99515625,1.948816
10:22:36,30-Sep-21,1.4075,1.396,1.98105625,1.948816
10:22:36,30-Sep-21,1.4075,1.396,1.98105625,1.948816
10:22:36,30-Sep-21,1.4075,1.395,1.98105625,1.946025
10:22:36,30-Sep-21,1.393,1.394,1.940449,1.943236
10:22:36,30-Sep-21,1.393,1.393,1.940449,1.940449
10:22:36,30-Sep-21,1.383,1.391,1.912689,1.934881
10:22:36,30-Sep-21,1.383,1.39,1.912689,1.9321
10:22:36,30-Sep-21,1.3635,1.388,1.85913225,1.926544
10:22:36,30-Sep-21,1.3585,1.385,1.84552225,1.918225
10:22:36,30-Sep-21,1.3585,1.383,1.84552225,1.912689
10:22:36,30-Sep-21,1.3585,1.38,1.84552225,1.9044
10:22:36,30-Sep-21,1.3585,1.377,1.84552225,1.896129
10:22:36,30-Sep-21,1.3585,1.374,1.84552225,1.887876
10:22:36,30-Sep-21,1.3585,1.371,1.84552225,1.879641
10:22:36,30-Sep-21,1.3585,1.367,1.84552225,1.868689
10:22:36,30-Sep-21,1.344,1.363,1.806336,1.857769
10:22:36,30-Sep-21,1.344,1.359,1.806336,1.846881
10:22:36,30-Sep-21,1.354,1.355,1.833316,1.836025
10:22:36,30-Sep-21,1.354,1.35,1.833316,1.8225
10:22:36,30-Sep-21,1.354,1.345,1.833316,1.809025
10:22:36,30-Sep-21,1.339,1.34,1.792921,1.7956
10:22:36,30-Sep-21,1.339,1.335,1.792921,1.782225
10:22:36,30-Sep-21,1.339,1.329,1.792921,1.766241
10:22:36,30-Sep-21,1.3245,1.323,1.75430025,1.750329
10:22:36,30-Sep-21,1.3245,1.317,1.75430025,1.734489
10:22:36,30-Sep-21,1.3245,1.31,1.75430025,1.7161
10:22:36,30-Sep-21,1.3245,1.303,1.75430025,1.697809
10:22:36,30-Sep-21,1.3245,1.296,1.75430025,1.679616
10:22:36,30-Sep-21,1.3245,1.289,1.75430025,1.661521
10:22:36,30-Sep-21,1.305,1.282,1.703025,1.643524
10:22:36,30-Sep-21,1.305,1.274,1.703025,1.623076
10:22:36,30-Sep-21,1.305,1.266,1.703025,1.602756
10:22:36,30-Sep-21,1.2805,1.258,1.63968025,1.582564
10:22:36,30-Sep-21,1.2805,1.25,1.63968025,1.5625
10:22:36,30-Sep-21,1.2805,1.242,1.63968025,1.542564
10:22:36,30-Sep-21,1.227,1.234,1.505529,1.522756
10:22:36,30-Sep-21,1.227,1.226,1.505529,1.503076
10:22:36,30-Sep-21,1.227,1.217,1.505529,1.481089
10:22:36,30-Sep-21,1.173,1.209,1.375929,1.461681
10:22:36,30-Sep-21,1.173,1.201,1.375929,1.442401
10:22:36,30-Sep-21,1.173,1.193,1.375929,1.423249
10:22:36,30-Sep-21,1.173,1.185,1.375929,1.404225
10:22:36,30-Sep-21,1.173,1.178,1.375929,1.387684
10:22:36,30-Sep-21,1.134,1.17,1.285956,1.3689
10:22:36,30-Sep-21,1.134,1.163,1.285956,1.352569
10:22:36,30-Sep-21,1.134,1.156,1.285956,1.336336
10:22:36,30-Sep-21,1.1145,1.149,1.24211025,1.320201
10:22:36,30-Sep-21,1.1145,1.143,1.24211025,1.306449
10:22:36,30-Sep-21,1.1145,1.137,1.24211025,1.292769
10:22:36,30-Sep-21,1.1145,1.131,1.24211025,1.279161
10:22:36,30-Sep-21,1.1145,1.125,1.24211025,1.265625
10:22:36,30-Sep-21,1.1145,1.12,1.24211025,1.2544
10:22:36,30-Sep-21,1.1045,1.115,1.21992025,1.243225
10:22:36,30-Sep-21,1.1045,1.111,1.21992025,1.234321
10:22:36,30-Sep-21,1.1045,1.107,1.21992025,1.225449
10:22:36,30-Sep-21,1.1045,1.103,1.21992025,1.216609
10:22:36,30-Sep-21,1.1045,1.099,1.21992025,1.207801
10:22:36,30-Sep-21,1.1045,1.095,1.21992025,1.199025
10:22:36,30-Sep-21,1.1045,1.092,1.21992025,1.192464
10:22:36,30-Sep-21,1.1045,1.089,1.21992025,1.185921
10:22:36,30-Sep-21,1.0995,1.086,1.20890025,1.179396
10:22:36,30-Sep-21,1.0995,1.084,1.20890025,1.175056
10:22:36,30-Sep-21,1.0995,1.081,1.20890025,1.168561
10:22:36,30-Sep-21,1.095,1.079,1.199025,1.164241
10:22:36,30-Sep-21,1.095,1.077,1.199025,1.159929
10:22:36,30-Sep-21,1.095,1.075,1.199025,1.155625
10:22:36,30-Sep-21,1.0755,1.073,1.15670025,1.151329
10:22:36,30-Sep-21,1.0755,1.072,1.15670025,1.149184
10:22:36,30-Sep-21,1.0755,1.07,1.15670025,1.1449
10:22:36,30-Sep-21,1.0705,1.069,1.14597025,1.142761
10:22:36,30-Sep-21,1.0705,1.067,1.14597025,1.138489
10:22:36,30-Sep-21,1.0705,1.066,1.14597025,1.136356
10:22:36,30-Sep-21,1.0705,1.065,1.14597025,1.134225
10:22:36,30-Sep-21,1.0705,1.064,1.14597025,1.132096
10:22:36,30-Sep-21,1.051,1.063,1.104601,1.129969
10:22:36,30-Sep-21,1.051,1.062,1.104601,1.127844
10:22:36,30-Sep-21,1.046,1.061,1.094116,1.125721
10:22:36,30-Sep-21,1.046,1.061,1.094116,1.125721
10:22:36,30-Sep-21,1.046,1.06,1.094116,1.1236
10:22:36,30-Sep-21,1.046,1.059,1.094116,1.121481
10:22:36,30-Sep-21,1.046,1.059,1.094116,1.121481
10:22:36,30-Sep-21,1.046,1.058,1.094116,1.119364
10:22:36,30-Sep-21,1.051,1.057,1.104601,1.117249
10:22:36,30-Sep-21,1.051,1.057,1.104601,1.117249
10:22:36,30-Sep-21,1.051,1.056,1.104601,1.115136
10:22:36,30-Sep-21,1.051,1.056,1.104601,1.115136
10:22:36,30-Sep-21,1.051,1.055,1.104601,1.113025
10:22:36,30-Sep-21,1.0555,1.055,1.11408025,1.113025
10:22:36,30-Sep-21,1.0555,1.054,1.11408025,1.110916
10:22:36,30-Sep-21,1.0555,1.054,1.11408025,1.110916
10:22:36,30-Sep-21,1.0705,1.053,1.14597025,1.108809
10:22:36,30-Sep-21,1.0705,1.052,1.14597025,1.106704
10:22:36,30-Sep-21,1.0705,1.052,1.14597025,1.106704
10:22:36,30-Sep-21,1.0705,1.051,1.14597025,1.104601
10:22:36,30-Sep-21,1.0705,1.05,1.14597025,1.1025
10:22:36,30-Sep-21,1.0705,1.049,1.14597025,1.100401
10:22:36,30-Sep-21,1.0555,1.048,1.11408025,1.098304
10:22:36,30-Sep-21,1.0555,1.047,1.11408025,1.096209
10:22:36,30-Sep-21,1.051,1.046,1.104601,1.094116
10:22:36,30-Sep-21,1.051,1.045,1.104601,1.092025
10:22:36,30-Sep-21,1.051,1.044,1.104601,1.089936
10:22:36,30-Sep-21,1.051,1.043,1.104601,1.087849
10:22:36,30-Sep-21,1.051,1.042,1.104601,1.085764
10:22:36,30-Sep-21,1.051,1.041,1.104601,1.083681
10:22:36,30-Sep-21,1.0315,1.04,1.06399225,1.0816
10:22:36,30-Sep-21,1.0265,1.039,1.05370225,1.079521
10:22:36,30-Sep-21,1.0265,1.039,1.05370225,1.079521
10:22:36,30-Sep-21,1.0265,1.038,1.05370225,1.077444
10:22:36,30-Sep-21,1.0165,1.037,1.03327225,1.075369
10:22:36,30-Sep-21,1.0165,1.037,1.03327225,1.075369
10:22:36,30-Sep-21,1.0165,1.036,1.03327225,1.073296
10:22:36,30-Sep-21,1.0165,1.036,1.03327225,1.073296
10:22:36,30-Sep-21,1.0165,1.036,1.03327225,1.073296
10:22:36,30-Sep-21,1.0165,1.035,1.03327225,1.071225
10:22:36,30-Sep-21,1.0165,1.036,1.03327225,1.073296
10:22:36,30-Sep-21,1.0165,1.036,1.03327225,1.073296
10:22:36,30-Sep-21,1.041,1.036,1.083681,1.073296
10:22:36,30-Sep-21,1.041,1.036,1.083681,1.073296
10:22:37,30-Sep-21,1.051,1.037,1.104601,1.075369
10:22:37,30-Sep-21,1.051,1.037,1.104601,1.075369
10:22:37,30-Sep-21,1.0605,1.038,1.12466025,1.077444
10:22:37,30-Sep-21,1.0605,1.039,1.12466025,1.079521
10:22:37,30-Sep-21,1.0605,1.04,1.12466025,1.0816
10:22:37,30-Sep-21,1.0605,1.041,1.12466025,1.083681
10:22:37,30-Sep-21,1.051,1.042,1.104601,1.085764
10:22:37,30-Sep-21,1.051,1.043,1.104601,1.087849
10:22:37,30-Sep-21,1.051,1.044,1.104601,1.089936
10:22:37,30-Sep-21,1.051,1.046,1.104601,1.094116
10:22:37,30-Sep-21,1.051,1.047,1.104601,1.096209
10:22:37,30-Sep-21,1.051,1.049,1.104601,1.100401
10:22:37,30-Sep-21,1.041,1.05,1.083681,1.1025
10:22:37,30-Sep-21,1.041,1.052,1.083681,1.106704
10:22:37,30-Sep-21,1.041,1.054,1.083681,1.110916
10:22:37,30-Sep-21,1.041,1.056,1.083681,1.115136
10:22:37,30-Sep-21,1.041,1.057,1.083681,1.117249
10:22:37,30-Sep-21,1.041,1.059,1.083681,1.121481
10:22:37,30-Sep-21,1.041,1.061,1.083681,1.125721
10:22:37,30-Sep-21,1.041,1.063,1.083681,1.129969
10:22:37,30-Sep-21,1.051,1.065,1.104601,1.134225
10:22:37,30-Sep-21,1.051,1.067,1.104601,1.138489
10:22:37,30-Sep-21,1.0605,1.069,1.12466025,1.142761
10:22:37,30-Sep-21,1.0605,1.071,1.12466025,1.147041
10:22:37,30-Sep-21,1.09,1.073,1.1881,1.151329
10:22:37,30-Sep-21,1.09,1.075,1.1881,1.155625
10:22:37,30-Sep-21,1.09,1.077,1.1881,1.159929
10:22:37,30-Sep-21,1.09,1.079,1.1881,1.164241
10:22:37,30-Sep-21,1.0995,1.08,1.20890025,1.1664
10:22:37,30-Sep-21,1.0995,1.082,1.20890025,1.170724
10:22:37,30-Sep-21,1.1045,1.084,1.21992025,1.175056
10:22:37,30-Sep-21,1.1045,1.085,1.21992025,1.177225
10:22:37,30-Sep-21,1.1095,1.086,1.23099025,1.179396
10:22:37,30-Sep-21,1.1095,1.088,1.23099025,1.183744
10:22:37,30-Sep-21,1.095,1.089,1.199025,1.185921
10:22:37,30-Sep-21,1.095,1.09,1.199025,1.1881
10:22:37,30-Sep-21,1.09,1.09,1.1881,1.1881
10:22:37,30-Sep-21,1.09,1.091,1.1881,1.190281
10:22:37,30-Sep-21,1.09,1.092,1.1881,1.192464
10:22:37,30-Sep-21,1.09,1.092,1.1881,1.192464
10:22:37,30-Sep-21,1.085,1.093,1.177225,1.194649
10:22:37,30-Sep-21,1.085,1.093,1.177225,1.194649
10:22:37,30-Sep-21,1.0755,1.094,1.15670025,1.196836
10:22:37,30-Sep-21,1.0755,1.094,1.15670025,1.196836
10:22:37,30-Sep-21,1.0705,1.094,1.14597025,1.196836
10:22:37,30-Sep-21,1.0705,1.094,1.14597025,1.196836
10:22:37,30-Sep-21,1.0705,1.094,1.14597025,1.196836
10:22:37,30-Sep-21,1.095,1.094,1.199025,1.196836
10:22:37,30-Sep-21,1.095,1.094,1.199025,1.196836
10:22:37,30-Sep-21,1.095,1.094,1.199025,1.196836
10:22:37,30-Sep-21,1.095,1.094,1.199025,1.196836
10:22:37,30-Sep-21,1.0995,1.094,1.20890025,1.196836
10:22:37,30-Sep-21,1.1095,1.094,1.23099025,1.196836
10:22:37,30-Sep-21,1.1095,1.093,1.23099025,1.194649
10:22:37,30-Sep-21,1.1095,1.093,1.23099025,1.194649
10:22:37,30-Sep-21,1.1095,1.092,1.23099025,1.192464
10:22:37,30-Sep-21,1.0995,1.092,1.20890025,1.192464
10:22:37,30-Sep-21,1.0995,1.092,1.20890025,1.192464
10:22:37,30-Sep-21,1.0995,1.091,1.20890025,1.190281
10:22:37,30-Sep-21,1.095,1.091,1.199025,1.190281
10:22:37,30-Sep-21,1.095,1.09,1.199025,1.1881
10:22:37,30-Sep-21,1.095,1.089,1.199025,1.185921
10:22:37,30-Sep-21,1.09,1.089,1.1881,1.185921
10:22:37,30-Sep-21,1.09,1.088,1.1881,1.183744
10:22:37,30-Sep-21,1.0705,1.088,1.14597025,1.183744
10:22:37,30-Sep-21,1.0705,1.087,1.14597025,1.181569
10:22:37,30-Sep-21,1.0605,1.087,1.12466025,1.181569
10:22:37,30-Sep-21,1.0605,1.086,1.12466025,1.179396
10:22:37,30-Sep-21,1.0655,1.086,1.13529025,1.179396
10:22:37,30-Sep-21,1.0655,1.085,1.13529025,1.177225
10:22:37,30-Sep-21,1.0755,1.085,1.15670025,1.177225
10:22:37,30-Sep-21,1.0755,1.084,1.15670025,1.175056
10:22:37,30-Sep-21,1.0755,1.084,1.15670025,1.175056
10:22:37,30-Sep-21,1.1045,1.084,1.21992025,1.175056
10:22:37,30-Sep-21,1.1045,1.083,1.21992025,1.172889
10:22:37,30-Sep-21,1.1045,1.083,1.21992025,1.172889
10:22:37,30-Sep-21,1.1045,1.083,1.21992025,1.172889
10:22:37,30-Sep-21,1.0995,1.083,1.20890025,1.172889
10:22:37,30-Sep-21,1.0995,1.082,1.20890025,1.170724
10:22:37,30-Sep-21,1.095,1.082,1.199025,1.170724
10:22:37,30-Sep-21,1.095,1.082,1.199025,1.170724
10:22:37,30-Sep-21,1.095,1.082,1.199025,1.170724
10:22:37,30-Sep-21,1.095,1.082,1.199025,1.170724
10:22:37,30-Sep-21,1.09,1.082,1.1881,1.170724
10:22:37,30-Sep-21,1.09,1.082,1.1881,1.170724
10:22:37,30-Sep-21,1.0705,1.082,1.14597025,1.170724
10:22:37,30-Sep-21,1.0705,1.082,1.14597025,1.170724
10:22:37,30-Sep-21,1.0655,1.082,1.13529025,1.170724
10:22:37,30-Sep-21,1.0655,1.082,1.13529025,1.170724
10:22:37,30-Sep-21,1.0605,1.082,1.12466025,1.170724
10:22:37,30-Sep-21,1.0605,1.083,1.12466025,1.172889
10:22:37,30-Sep-21,1.0605,1.083,1.12466025,1.172889
10:22:37,30-Sep-21,1.0605,1.084,1.12466025,1.175056
10:22:37,30-Sep-21,1.0605,1.084,1.12466025,1.175056
10:22:37,30-Sep-21,1.0605,1.085,1.12466025,1.177225
10:22:37,30-Sep-21,1.08,1.085,1.1664,1.177225
10:22:37,30-Sep-21,1.08,1.086,1.1664,1.179396
10:22:37,30-Sep-21,1.09,1.087,1.1881,1.181569
10:22:37,30-Sep-21,1.09,1.088,1.1881,1.183744
10:22:37,30-Sep-21,1.1095,1.088,1.23099025,1.183744
10:22:37,30-Sep-21,1.1095,1.089,1.23099025,1.185921
10:22:37,30-Sep-21,1.1095,1.09,1.23099025,1.1881
10:22:37,30-Sep-21,1.1095,1.091,1.23099025,1.190281
10:22:37,30-Sep-21,1.1095,1.091,1.23099025,1.190281
10:22:37,30-Sep-21,1.1095,1.092,1.23099025,1.192464
10:22:37,30-Sep-21,1.1095,1.092,1.23099025,1.192464
10:22:37,30-Sep-21,1.1095,1.093,1.23099025,1.194649
10:22:37,30-Sep-21,1.0995,1.094,1.20890025,1.196836
10:22:37,30-Sep-21,1.0995,1.094,1.20890025,1.196836
10:22:37,30-Sep-21,1.095,1.095,1.199025,1.199025
10:22:37,30-Sep-21,1.095,1.095,1.199025,1.199025
10:22:37,30-Sep-21,1.085,1.095,1.177225,1.199025
10:22:37,30-Sep-21,1.085,1.096,1.177225,1.201216
10:22:37,30-Sep-21,1.085,1.096,1.177225,1.201216
10:22:37,30-Sep-21,1.085,1.096,1.177225,1.201216
10:22:37,30-Sep-21,1.085,1.096,1.177225,1.201216
10:22:37,30-Sep-21,1.085,1.097,1.177225,1.203409
10:22:37,30-Sep-21,1.085,1.097,1.177225,1.203409
10:22:37,30-Sep-21,1.085,1.097,1.177225,1.203409
10:22:37,30-Sep-21,1.09,1.097,1.1881,1.203409
10:22:37,30-Sep-21,1.09,1.097,1.1881,1.203409
10:22:37,30-Sep-21,1.1045,1.097,1.21992025,1.203409
10:22:37,30-Sep-21,1.1045,1.097,1.21992025,1.203409
10:22:37,30-Sep-21,1.1045,1.097,1.21992025,1.203409
10:22:37,30-Sep-21,1.1045,1.097,1.21992025,1.203409
10:22:37,30-Sep-21,1.1045,1.097,1.21992025,1.203409
10:22:37,30-Sep-21,1.1045,1.097,1.21992025,1.203409
10:22:38,30-Sep-21,1.1095,1.096,1.23099025,1.201216
10:22:38,30-Sep-21,1.1045,1.096,1.21992025,1.201216
10:22:38,30-Sep-21,1.1045,1.096,1.21992025,1.201216
10:22:38,30-Sep-21,1.1095,1.096,1.23099025,1.201216
10:22:38,30-Sep-21,1.1095,1.096,1.23099025,1.201216
10:22:38,30-Sep-21,1.095,1.095,1.199025,1.199025
10:22:38,30-Sep-21,1.095,1.095,1.199025,1.199025
10:22:38,30-Sep-21,1.095,1.095,1.199025,1.199025
10:22:38,30-Sep-21,1.095,1.095,1.199025,1.199025
10:22:38,30-Sep-21,1.09,1.095,1.1881,1.199025
10:22:38,30-Sep-21,1.0755,1.095,1.15670025,1.199025
10:22:38,30-Sep-21,1.0755,1.094,1.15670025,1.196836
10:22:38,30-Sep-21,1.0755,1.094,1.15670025,1.196836
10:22:38,30-Sep-21,1.0705,1.094,1.14597025,1.196836
10:22:38,30-Sep-21,1.0705,1.094,1.14597025,1.196836
10:22:38,30-Sep-21,1.08,1.094,1.1664,1.196836
10:22:38,30-Sep-21,1.08,1.094,1.1664,1.196836
10:22:38,30-Sep-21,1.09,1.094,1.1881,1.196836
10:22:38,30-Sep-21,1.09,1.094,1.1881,1.196836
10:22:38,30-Sep-21,1.09,1.094,1.1881,1.196836
10:22:38,30-Sep-21,1.09,1.094,1.1881,1.196836
10:22:38,30-Sep-21,1.1145,1.094,1.24211025,1.196836
10:22:38,30-Sep-21,1.1145,1.094,1.24211025,1.196836
10:22:38,30-Sep-21,1.1145,1.094,1.24211025,1.196836
10:22:38,30-Sep-21,1.1145,1.094,1.24211025,1.196836
10:22:38,30-Sep-21,1.1145,1.094,1.24211025,1.196836
10:22:38,30-Sep-21,1.1145,1.094,1.24211025,1.196836
10:22:38,30-Sep-21,1.1095,1.094,1.23099025,1.196836
10:22:38,30-Sep-21,1.1095,1.094,1.23099025,1.196836
10:22:38,30-Sep-21,1.1095,1.094,1.23099025,1.196836
10:22:38,30-Sep-21,1.1095,1.094,1.23099025,1.196836
10:22:38,30-Sep-21,1.1095,1.094,1.23099025,1.196836
10:22:38,30-Sep-21,1.09,1.094,1.1881,1.196836
10:22:38,30-Sep-21,1.09,1.094,1.1881,1.196836
10:22:38,30-Sep-21,1.0755,1.093,1.15670025,1.194649
10:22:38,30-Sep-21,1.0755,1.093,1.15670025,1.194649
10:22:38,30-Sep-21,1.0755,1.093,1.15670025,1.194649
10:22:38,30-Sep-21,1.0705,1.093,1.14597025,1.194649
10:22:38,30-Sep-21,1.0705,1.093,1.14597025,1.194649
10:22:38,30-Sep-21,1.0705,1.093,1.14597025,1.194649
10:22:38,30-Sep-21,1.0705,1.093,1.14597025,1.194649
10:22:38,30-Sep-21,1.0705,1.093,1.14597025,1.194649
10:22:38,30-Sep-21,1.0705,1.093,1.14597025,1.194649
10:22:38,30-Sep-21,1.09,1.093,1.1881,1.194649
10:22:38,30-Sep-21,1.09,1.093,1.1881,1.194649
10:22:38,30-Sep-21,1.09,1.093,1.1881,1.194649
10:22:38,30-Sep-21,1.1045,1.093,1.21992025,1.194649
10:22:38,30-Sep-21,1.1045,1.093,1.21992025,1.194649
10:22:38,30-Sep-21,1.1145,1.093,1.24211025,1.194649
10:22:38,30-Sep-21,1.1145,1.093,1.24211025,1.194649
10:22:38,30-Sep-21,1.1145,1.093,1.24211025,1.194649
10:22:38,30-Sep-21,1.1095,1.093,1.23099025,1.194649
10:22:38,30-Sep-21,1.1095,1.093,1.23099025,1.194649
10:22:38,30-Sep-21,1.1095,1.093,1.23099025,1.194649
10:22:38,30-Sep-21,1.1095,1.093,1.23099025,1.194649
10:22:38,30-Sep-21,1.1045,1.093,1.21992025,1.194649
10:22:38,30-Sep-21,1.1045,1.093,1.21992025,1.194649
10:22:38,30-Sep-21,1.1045,1.093,1.21992025,1.194649
10:22:38,30-Sep-21,1.1045,1.093,1.21992025,1.194649
10:22:38,30-Sep-21,1.09,1.093,1.1881,1.194649
10:22:38,30-Sep-21,1.09,1.092,1.1881,1.192464
10:22:38,30-Sep-21,1.085,1.092,1.177225,1.192464
10:22:38,30-Sep-21,1.085,1.092,1.177225,1.192464
10:22:38,30-Sep-21,1.0705,1.092,1.14597025,1.192464
10:22:38,30-Sep-21,1.0705,1.092,1.14597025,1.192464
10:22:38,30-Sep-21,1.0705,1.092,1.14597025,1.192464
10:22:38,30-Sep-21,1.0755,1.092,1.15670025,1.192464
10:22:38,30-Sep-21,1.0755,1.092,1.15670025,1.192464
10:22:38,30-Sep-21,1.0755,1.092,1.15670025,1.192464
10:22:38,30-Sep-21,1.0755,1.093,1.15670025,1.194649
10:22:38,30-Sep-21,1.08,1.093,1.1664,1.194649
10:22:38,30-Sep-21,1.08,1.093,1.1664,1.194649
10:22:38,30-Sep-21,1.08,1.093,1.1664,1.194649
10:22:38,30-Sep-21,1.09,1.093,1.1881,1.194649
10:22:38,30-Sep-21,1.09,1.094,1.1881,1.196836
10:22:38,30-Sep-21,1.1045,1.094,1.21992025,1.196836
10:22:38,30-Sep-21,1.1045,1.094,1.21992025,1.196836
10:22:38,30-Sep-21,1.1195,1.094,1.25328025,1.196836
10:22:38,30-Sep-21,1.1195,1.095,1.25328025,1.199025
10:22:38,30-Sep-21,1.1195,1.095,1.25328025,1.199025
10:22:38,30-Sep-21,1.1195,1.095,1.25328025,1.199025
10:22:38,30-Sep-21,1.1195,1.095,1.25328025,1.199025
10:22:38,30-Sep-21,1.1195,1.095,1.25328025,1.199025
10:22:38,30-Sep-21,1.1045,1.096,1.21992025,1.201216
10:22:38,30-Sep-21,1.1045,1.096,1.21992025,1.201216
10:22:38,30-Sep-21,1.0995,1.096,1.20890025,1.201216
10:22:38,30-Sep-21,1.0995,1.096,1.20890025,1.201216
10:22:38,30-Sep-21,1.0995,1.096,1.20890025,1.201216
10:22:38,30-Sep-21,1.08,1.096,1.1664,1.201216
10:22:38,30-Sep-21,1.08,1.096,1.1664,1.201216
10:22:38,30-Sep-21,1.08,1.096,1.1664,1.201216
10:22:38,30-Sep-21,1.08,1.096,1.1664,1.201216
10:22:38,30-Sep-21,1.0705,1.096,1.14597025,1.201216
10:22:38,30-Sep-21,1.0705,1.096,1.14597025,1.201216
10:22:38,30-Sep-21,1.08,1.096,1.1664,1.201216
10:22:38,30-Sep-21,1.08,1.096,1.1664,1.201216
10:22:38,30-Sep-21,1.085,1.097,1.177225,1.203409
10:22:38,30-Sep-21,1.085,1.097,1.177225,1.203409
10:22:38,30-Sep-21,1.095,1.097,1.199025,1.203409
10:22:38,30-Sep-21,1.095,1.097,1.199025,1.203409
10:22:38,30-Sep-21,1.095,1.097,1.199025,1.203409
10:22:38,30-Sep-21,1.1145,1.097,1.24211025,1.203409
10:22:38,30-Sep-21,1.1145,1.097,1.24211025,1.203409
10:22:38,30-Sep-21,1.1145,1.097,1.24211025,1.203409
10:22:38,30-Sep-21,1.1145,1.097,1.24211025,1.203409
10:22:38,30-Sep-21,1.1095,1.097,1.23099025,1.203409
10:22:38,30-Sep-21,1.1095,1.097,1.23099025,1.203409
10:22:38,30-Sep-21,1.1095,1.097,1.23099025,1.203409
10:22:38,30-Sep-21,1.1095,1.096,1.23099025,1.201216
10:22:38,30-Sep-21,1.1045,1.096,1.21992025,1.201216
10:22:38,30-Sep-21,1.1045,1.096,1.21992025,1.201216
10:22:38,30-Sep-21,1.095,1.096,1.199025,1.201216
10:22:38,30-Sep-21,1.095,1.096,1.199025,1.201216
10:22:38,30-Sep-21,1.095,1.096,1.199025,1.201216
10:22:38,30-Sep-21,1.095,1.095,1.199025,1.199025
10:22:38,30-Sep-21,1.095,1.095,1.199025,1.199025
10:22:38,30-Sep-21,1.095,1.095,1.199025,1.199025
10:22:38,30-Sep-21,1.095,1.095,1.199025,1.199025
10:22:38,30-Sep-21,1.08,1.094,1.1664,1.196836
10:22:38,30-Sep-21,1.08,1.094,1.1664,1.196836
10:22:38,30-Sep-21,1.08,1.094,1.1664,1.196836
10:22:38,30-Sep-21,1.08,1.094,1.1664,1.196836
10:22:38,30-Sep-21,1.08,1.094,1.1664,1.196836
10:22:38,30-Sep-21,1.08,1.094,1.1664,1.196836
10:22:38,30-Sep-21,1.08,1.094,1.1664,1.196836
10:22:38,30-Sep-21,1.09,1.094,1.1881,1.196836
10:22:38,30-Sep-21,1.09,1.094,1.1881,1.196836
10:22:38,30-Sep-21,1.09,1.094,1.1881,1.196836
10:22:38,30-Sep-21,1.09,1.094,1.1881,1.196836
10:22:38,30-Sep-21,1.095,1.094,1.199025,1.196836
10:22:38,30-Sep-21,1.095,1.095,1.199025,1.199025
10:22:38,30-Sep-21,1.1095,1.095,1.23099025,1.199025
10:22:38,30-Sep-21,1.1095,1.095,1.23099025,1.199025
10:22:38,30-Sep-21,1.1145,1.095,1.24211025,1.199025
10:22:38,30-Sep-21,1.1145,1.095,1.24211025,1.199025
10:22:38,30-Sep-21,1.1045,1.096,1.21992025,1.201216
10:22:38,30-Sep-21,1.1045,1.096,1.21992025,1.201216
10:22:38,30-Sep-21,1.1045,1.096,1.21992025,1.201216
10:22:38,30-Sep-21,1.1045,1.096,1.21992025,1.201216
10:22:39,30-Sep-21,1.1045,1.097,1.21992025,1.203409
10:22:39,30-Sep-21,1.1045,1.097,1.21992025,1.203409
10:22:39,30-Sep-21,1.1045,1.097,1.21992025,1.203409
10:22:39,30-Sep-21,1.095,1.098,1.199025,1.205604
10:22:39,30-Sep-21,1.095,1.098,1.199025,1.205604
10:22:39,30-Sep-21,1.095,1.099,1.199025,1.207801
10:22:39,30-Sep-21,1.095,1.099,1.199025,1.207801
10:22:39,30-Sep-21,1.095,1.1,1.199025,1.21
10:22:39,30-Sep-21,1.09,1.1,1.1881,1.21
10:22:39,30-Sep-21,1.085,1.101,1.177225,1.212201
10:22:39,30-Sep-21,1.085,1.102,1.177225,1.214404
10:22:39,30-Sep-21,1.085,1.102,1.177225,1.214404
10:22:39,30-Sep-21,1.085,1.103,1.177225,1.216609
10:22:39,30-Sep-21,1.085,1.104,1.177225,1.218816
10:22:39,30-Sep-21,1.09,1.105,1.1881,1.221025
10:22:39,30-Sep-21,1.09,1.106,1.1881,1.223236
10:22:39,30-Sep-21,1.1095,1.107,1.23099025,1.225449
10:22:39,30-Sep-21,1.1095,1.108,1.23099025,1.227664
10:22:39,30-Sep-21,1.1195,1.109,1.25328025,1.229881
10:22:39,30-Sep-21,1.1195,1.11,1.25328025,1.2321
10:22:39,30-Sep-21,1.134,1.111,1.285956,1.234321
10:22:39,30-Sep-21,1.134,1.112,1.285956,1.236544
10:22:39,30-Sep-21,1.134,1.113,1.285956,1.238769
10:22:39,30-Sep-21,1.139,1.114,1.297321,1.240996
10:22:39,30-Sep-21,1.139,1.115,1.297321,1.243225
10:22:39,30-Sep-21,1.124,1.116,1.263376,1.245456
10:22:39,30-Sep-21,1.124,1.117,1.263376,1.247689
10:22:39,30-Sep-21,1.1195,1.118,1.25328025,1.249924
10:22:39,30-Sep-21,1.1195,1.119,1.25328025,1.252161
10:22:39,30-Sep-21,1.1095,1.12,1.23099025,1.2544
10:22:39,30-Sep-21,1.1095,1.12,1.23099025,1.2544
10:22:39,30-Sep-21,1.1095,1.121,1.23099025,1.256641
10:22:39,30-Sep-21,1.1095,1.122,1.23099025,1.258884
10:22:39,30-Sep-21,1.095,1.123,1.199025,1.261129
10:22:39,30-Sep-21,1.095,1.124,1.199025,1.263376
10:22:39,30-Sep-21,1.095,1.124,1.199025,1.263376
10:22:39,30-Sep-21,1.095,1.125,1.199025,1.265625
10:22:39,30-Sep-21,1.1145,1.126,1.24211025,1.267876
10:22:39,30-Sep-21,1.1145,1.126,1.24211025,1.267876
10:22:39,30-Sep-21,1.1195,1.127,1.25328025,1.270129
10:22:39,30-Sep-21,1.1195,1.127,1.25328025,1.270129
10:22:39,30-Sep-21,1.1485,1.128,1.31905225,1.272384
10:22:39,30-Sep-21,1.1485,1.128,1.31905225,1.272384
10:22:39,30-Sep-21,1.1485,1.128,1.31905225,1.272384
10:22:39,30-Sep-21,1.1485,1.128,1.31905225,1.272384
10:22:39,30-Sep-21,1.1535,1.128,1.33056225,1.272384
10:22:39,30-Sep-21,1.1535,1.128,1.33056225,1.272384
10:22:39,30-Sep-21,1.1535,1.128,1.33056225,1.272384
10:22:39,30-Sep-21,1.1535,1.128,1.33056225,1.272384
10:22:39,30-Sep-21,1.1485,1.127,1.31905225,1.270129
10:22:39,30-Sep-21,1.1485,1.127,1.31905225,1.270129
10:22:39,30-Sep-21,1.139,1.126,1.297321,1.267876
10:22:39,30-Sep-21,1.139,1.126,1.297321,1.267876
10:22:39,30-Sep-21,1.1145,1.125,1.24211025,1.265625
10:22:39,30-Sep-21,1.1145,1.124,1.24211025,1.263376
10:22:39,30-Sep-21,1.1145,1.124,1.24211025,1.263376
10:22:39,30-Sep-21,1.1145,1.123,1.24211025,1.261129
10:22:39,30-Sep-21,1.1145,1.122,1.24211025,1.258884
10:22:39,30-Sep-21,1.1145,1.121,1.24211025,1.256641
10:22:39,30-Sep-21,1.1045,1.121,1.21992025,1.256641
10:22:39,30-Sep-21,1.1045,1.12,1.21992025,1.2544
10:22:39,30-Sep-21,1.095,1.119,1.199025,1.252161
10:22:39,30-Sep-21,1.095,1.119,1.199025,1.252161
10:22:39,30-Sep-21,1.095,1.118,1.199025,1.249924
10:22:39,30-Sep-21,1.095,1.117,1.199025,1.247689
10:22:39,30-Sep-21,1.095,1.117,1.199025,1.247689
10:22:39,30-Sep-21,1.095,1.116,1.199025,1.245456
10:22:39,30-Sep-21,1.1195,1.116,1.25328025,1.245456
10:22:39,30-Sep-21,1.1195,1.116,1.25328025,1.245456
10:22:39,30-Sep-21,1.1195,1.115,1.25328025,1.243225
10:22:39,30-Sep-21,1.1195,1.115,1.25328025,1.243225
10:22:39,30-Sep-21,1.1195,1.115,1.25328025,1.243225
10:22:39,30-Sep-21,1.1195,1.115,1.25328025,1.243225
10:22:39,30-Sep-21,1.124,1.114,1.263376,1.240996
10:22:39,30-Sep-21,1.124,1.114,1.263376,1.240996
10:22:39,30-Sep-21,1.124,1.114,1.263376,1.240996
10:22:39,30-Sep-21,1.134,1.114,1.285956,1.240996
10:22:39,30-Sep-21,1.134,1.114,1.285956,1.240996
10:22:39,30-Sep-21,1.129,1.114,1.274641,1.240996
10:22:39,30-Sep-21,1.129,1.114,1.274641,1.240996
10:22:39,30-Sep-21,1.129,1.113,1.274641,1.238769
10:22:39,30-Sep-21,1.124,1.113,1.263376,1.238769
10:22:39,30-Sep-21,1.124,1.113,1.263376,1.238769
10:22:39,30-Sep-21,1.124,1.113,1.263376,1.238769
10:22:39,30-Sep-21,1.1095,1.113,1.23099025,1.238769
10:22:39,30-Sep-21,1.1095,1.113,1.23099025,1.238769
10:22:39,30-Sep-21,1.1095,1.113,1.23099025,1.238769
10:22:39,30-Sep-21,1.1095,1.113,1.23099025,1.238769
10:22:39,30-Sep-21,1.1095,1.113,1.23099025,1.238769
10:22:39,30-Sep-21,1.1095,1.113,1.23099025,1.238769
10:22:39,30-Sep-21,1.1095,1.113,1.23099025,1.238769
10:22:39,30-Sep-21,1.1095,1.113,1.23099025,1.238769
10:22:39,30-Sep-21,1.095,1.114,1.199025,1.240996
10:22:39,30-Sep-21,1.095,1.114,1.199025,1.240996
10:22:39,30-Sep-21,1.095,1.114,1.199025,1.240996
10:22:39,30-Sep-21,1.0995,1.115,1.20890025,1.243225
10:22:39,30-Sep-21,1.0995,1.115,1.20890025,1.243225
10:22:39,30-Sep-21,1.0995,1.116,1.20890025,1.245456
10:22:39,30-Sep-21,1.1095,1.117,1.23099025,1.247689
10:22:39,30-Sep-21,1.1095,1.117,1.23099025,1.247689
10:22:39,30-Sep-21,1.1095,1.118,1.23099025,1.249924
10:22:39,30-Sep-21,1.1095,1.118,1.23099025,1.249924
10:22:39,30-Sep-21,1.1095,1.119,1.23099025,1.252161
10:22:39,30-Sep-21,1.1195,1.12,1.25328025,1.2544
10:22:39,30-Sep-21,1.1195,1.12,1.25328025,1.2544
10:22:39,30-Sep-21,1.1195,1.121,1.25328025,1.256641
10:22:39,30-Sep-21,1.139,1.121,1.297321,1.256641
10:22:39,30-Sep-21,1.139,1.122,1.297321,1.258884
10:22:39,30-Sep-21,1.139,1.122,1.297321,1.258884
10:22:39,30-Sep-21,1.139,1.123,1.297321,1.261129
10:22:39,30-Sep-21,1.139,1.123,1.297321,1.261129
10:22:39,30-Sep-21,1.139,1.123,1.297321,1.261129
10:22:39,30-Sep-21,1.139,1.123,1.297321,1.261129
10:22:39,30-Sep-21,1.139,1.123,1.297321,1.261129
10:22:39,30-Sep-21,1.139,1.123,1.297321,1.261129
10:22:39,30-Sep-21,1.139,1.123,1.297321,1.261129
10:22:39,30-Sep-21,1.139,1.123,1.297321,1.261129
10:22:39,30-Sep-21,1.129,1.123,1.274641,1.261129
10:22:39,30-Sep-21,1.129,1.123,1.274641,1.261129
10:22:39,30-Sep-21,1.129,1.122,1.274641,1.258884
10:22:39,30-Sep-21,1.124,1.122,1.263376,1.258884
10:22:39,30-Sep-21,1.124,1.122,1.263376,1.258884
10:22:39,30-Sep-21,1.124,1.121,1.263376,1.256641
10:22:39,30-Sep-21,1.1045,1.121,1.21992025,1.256641
10:22:39,30-Sep-21,1.1045,1.12,1.21992025,1.2544
10:22:39,30-Sep-21,1.1045,1.12,1.21992025,1.2544
10:22:39,30-Sep-21,1.1045,1.12,1.21992025,1.2544
10:22:39,30-Sep-21,1.1045,1.119,1.21992025,1.252161
10:22:39,30-Sep-21,1.1045,1.119,1.21992025,1.252161
10:22:39,30-Sep-21,1.1045,1.119,1.21992025,1.252161
10:22:39,30-Sep-21,1.1045,1.119,1.21992025,1.252161
10:22:39,30-Sep-21,1.1045,1.119,1.21992025,1.252161
10:22:39,30-Sep-21,1.1045,1.119,1.21992025,1.252161
10:22:39,30-Sep-21,1.1045,1.119,1.21992025,1.252161
10:22:39,30-Sep-21,1.1095,1.119,1.23099025,1.252161
10:22:39,30-Sep-21,1.1095,1.119,1.23099025,1.252161
10:22:39,30-Sep-21,1.1095,1.119,1.23099025,1.252161
10:22:39,30-Sep-21,1.124,1.119,1.263376,1.252161
10:22:39,30-Sep-21,1.124,1.119,1.263376,1.252161
10:22:39,30-Sep-21,1.124,1.12,1.263376,1.2544
10:22:39,30-Sep-21,1.129,1.12,1.274641,1.2544
10:22:39,30-Sep-21,1.129,1.12,1.274641,1.2544
10:22:39,30-Sep-21,1.129,1.12,1.274641,1.2544
10:22:39,30-Sep-21,1.129,1.12,1.274641,1.2544
10:22:39,30-Sep-21,1.129,1.121,1.274641,1.256641
10:22:39,30-Sep-21,1.129,1.121,1.274641,1.256641
10:22:39,30-Sep-21,1.129,1.121,1.274641,1.256641
10:22:39,30-Sep-21,1.129,1.121,1.274641,1.256641
10:22:39,30-Sep-21,1.134,1.121,1.285956,1.256641
10:22:39,30-Sep-21,1.134,1.121,1.285956,1.256641
10:22:39,30-Sep-21,1.134,1.121,1.285956,1.256641
10:22:39,30-Sep-21,1.129,1.121,1.274641,1.256641
10:22:39,30-Sep-21,1.129,1.121,1.274641,1.256641
10:22:39,30-Sep-21,1.124,1.121,1.263376,1.256641
10:22:39,30-Sep-21,1.124,1.12,1.263376,1.2544
10:22:39,30-Sep-21,1.124,1.12,1.263376,1.2544
10:22:39,30-Sep-21,1.124,1.12,1.263376,1.2544
10:22:39,30-Sep-21,1.124,1.12,1.263376,1.2544
10:22:39,30-Sep-21,1.124,1.12,1.263376,1.2544
10:22:39,30-Sep-21,1.124,1.12,1.263376,1.2544
10:22:40,30-Sep-21,1.1095,1.119,1.23099025,1.252161
10:22:40,30-Sep-21,1.1095,1.119,1.23099025,1.252161
10:22:40,30-Sep-21,1.1095,1.119,1.23099025,1.252161
10:22:40,30-Sep-21,1.1095,1.119,1.23099025,1.252161
10:22:40,30-Sep-21,1.1095,1.119,1.23099025,1.252161
10:22:40,30-Sep-21,1.1095,1.119,1.23099025,1.252161
10:22:40,30-Sep-21,1.1095,1.12,1.23099025,1.2544
10:22:40,30-Sep-21,1.1095,1.12,1.23099025,1.2544
10:22:40,30-Sep-21,1.1095,1.12,1.23099025,1.2544
10:22:40,30-Sep-21,1.1095,1.12,1.23099025,1.2544
10:22:40,30-Sep-21,1.1095,1.121,1.23099025,1.256641
10:22:40,30-Sep-21,1.1095,1.121,1.23099025,1.256641
10:22:40,30-Sep-21,1.1095,1.122,1.23099025,1.258884
10:22:40,30-Sep-21,1.1095,1.122,1.23099025,1.258884
10:22:40,30-Sep-21,1.1195,1.123,1.25328025,1.261129
10:22:40,30-Sep-21,1.1195,1.124,1.25328025,1.263376
10:22:40,30-Sep-21,1.1195,1.124,1.25328025,1.263376
10:22:40,30-Sep-21,1.1195,1.125,1.25328025,1.265625
10:22:40,30-Sep-21,1.1195,1.126,1.25328025,1.267876
10:22:40,30-Sep-21,1.1435,1.126,1.30759225,1.267876
10:22:40,30-Sep-21,1.1435,1.127,1.30759225,1.270129
10:22:40,30-Sep-21,1.1435,1.127,1.30759225,1.270129
10:22:40,30-Sep-21,1.1435,1.128,1.30759225,1.272384
10:22:40,30-Sep-21,1.1435,1.129,1.30759225,1.274641
10:22:40,30-Sep-21,1.1435,1.129,1.30759225,1.274641
10:22:40,30-Sep-21,1.1435,1.129,1.30759225,1.274641
10:22:40,30-Sep-21,1.1435,1.13,1.30759225,1.2769
10:22:40,30-Sep-21,1.1435,1.13,1.30759225,1.2769
10:22:40,30-Sep-21,1.1435,1.13,1.30759225,1.2769
10:22:40,30-Sep-21,1.1435,1.131,1.30759225,1.279161
10:22:40,30-Sep-21,1.1435,1.131,1.30759225,1.279161
10:22:40,30-Sep-21,1.134,1.131,1.285956,1.279161
10:22:40,30-Sep-21,1.134,1.131,1.285956,1.279161
10:22:40,30-Sep-21,1.134,1.131,1.285956,1.279161
10:22:40,30-Sep-21,1.134,1.131,1.285956,1.279161
10:22:40,30-Sep-21,1.129,1.132,1.274641,1.281424
10:22:40,30-Sep-21,1.129,1.132,1.274641,1.281424
10:22:40,30-Sep-21,1.129,1.132,1.274641,1.281424
10:22:40,30-Sep-21,1.1145,1.132,1.24211025,1.281424
10:22:40,30-Sep-21,1.1145,1.132,1.24211025,1.281424
10:22:40,30-Sep-21,1.1145,1.132,1.24211025,1.281424
10:22:40,30-Sep-21,1.1145,1.133,1.24211025,1.283689
10:22:40,30-Sep-21,1.1145,1.133,1.24211025,1.283689
10:22:40,30-Sep-21,1.1145,1.133,1.24211025,1.283689
10:22:40,30-Sep-21,1.1145,1.134,1.24211025,1.285956
10:22:40,30-Sep-21,1.1145,1.134,1.24211025,1.285956
10:22:40,30-Sep-21,1.1095,1.134,1.23099025,1.285956
10:22:40,30-Sep-21,1.1095,1.135,1.23099025,1.288225
10:22:40,30-Sep-21,1.134,1.135,1.285956,1.288225
10:22:40,30-Sep-21,1.134,1.136,1.285956,1.290496
10:22:40,30-Sep-21,1.134,1.136,1.285956,1.290496
10:22:40,30-Sep-21,1.1435,1.137,1.30759225,1.292769
10:22:40,30-Sep-21,1.1435,1.137,1.30759225,1.292769
10:22:40,30-Sep-21,1.163,1.137,1.352569,1.292769
10:22:40,30-Sep-21,1.163,1.138,1.352569,1.295044
10:22:40,30-Sep-21,1.163,1.138,1.352569,1.295044
10:22:40,30-Sep-21,1.168,1.138,1.364224,1.295044
10:22:40,30-Sep-21,1.168,1.139,1.364224,1.297321
10:22:40,30-Sep-21,1.168,1.139,1.364224,1.297321
10:22:40,30-Sep-21,1.168,1.139,1.364224,1.297321
10:22:40,30-Sep-21,1.1535,1.139,1.33056225,1.297321
10:22:40,30-Sep-21,1.1535,1.139,1.33056225,1.297321
10:22:40,30-Sep-21,1.1435,1.139,1.30759225,1.297321
10:22:40,30-Sep-21,1.1435,1.139,1.30759225,1.297321
10:22:40,30-Sep-21,1.124,1.139,1.263376,1.297321
10:22:40,30-Sep-21,1.124,1.139,1.263376,1.297321
10:22:40,30-Sep-21,1.1195,1.139,1.25328025,1.297321
10:22:40,30-Sep-21,1.1195,1.139,1.25328025,1.297321
10:22:40,30-Sep-21,1.1195,1.139,1.25328025,1.297321
10:22:40,30-Sep-21,1.1195,1.138,1.25328025,1.295044
10:22:40,30-Sep-21,1.1195,1.138,1.25328025,1.295044
10:22:40,30-Sep-21,1.1145,1.138,1.24211025,1.295044
10:22:40,30-Sep-21,1.1145,1.138,1.24211025,1.295044
10:22:40,30-Sep-21,1.1195,1.138,1.25328025,1.295044
10:22:40,30-Sep-21,1.1195,1.138,1.25328025,1.295044
10:22:40,30-Sep-21,1.129,1.139,1.274641,1.297321
10:22:40,30-Sep-21,1.129,1.139,1.274641,1.297321
10:22:40,30-Sep-21,1.1535,1.139,1.33056225,1.297321
10:22:40,30-Sep-21,1.1535,1.139,1.33056225,1.297321
10:22:40,30-Sep-21,1.1535,1.139,1.33056225,1.297321
10:22:40,30-Sep-21,1.1585,1.139,1.34212225,1.297321
10:22:40,30-Sep-21,1.1585,1.139,1.34212225,1.297321
10:22:40,30-Sep-21,1.1585,1.139,1.34212225,1.297321
10:22:40,30-Sep-21,1.1585,1.139,1.34212225,1.297321
10:22:40,30-Sep-21,1.1585,1.139,1.34212225,1.297321
10:22:40,30-Sep-21,1.1535,1.139,1.33056225,1.297321
10:22:40,30-Sep-21,1.1535,1.139,1.33056225,1.297321
10:22:40,30-Sep-21,1.139,1.139,1.297321,1.297321
10:22:40,30-Sep-21,1.139,1.139,1.297321,1.297321
10:22:40,30-Sep-21,1.139,1.139,1.297321,1.297321
10:22:40,30-Sep-21,1.139,1.139,1.297321,1.297321
10:22:40,30-Sep-21,1.129,1.139,1.274641,1.297321
10:22:40,30-Sep-21,1.129,1.139,1.274641,1.297321
10:22:40,30-Sep-21,1.1145,1.139,1.24211025,1.297321
10:22:40,30-Sep-21,1.1145,1.139,1.24211025,1.297321
10:22:40,30-Sep-21,1.1145,1.139,1.24211025,1.297321
10:22:40,30-Sep-21,1.1145,1.139,1.24211025,1.297321
10:22:40,30-Sep-21,1.1195,1.139,1.25328025,1.297321
10:22:40,30-Sep-21,1.1195,1.139,1.25328025,1.297321
10:22:40,30-Sep-21,1.1485,1.139,1.31905225,1.297321
10:22:40,30-Sep-21,1.1485,1.139,1.31905225,1.297321
10:22:40,30-Sep-21,1.1485,1.139,1.31905225,1.297321
10:22:40,30-Sep-21,1.1485,1.138,1.31905225,1.295044
10:22:40,30-Sep-21,1.1535,1.138,1.33056225,1.295044
10:22:40,30-Sep-21,1.1535,1.138,1.33056225,1.295044
10:22:40,30-Sep-21,1.163,1.138,1.352569,1.295044
10:22:40,30-Sep-21,1.1585,1.138,1.34212225,1.295044
10:22:40,30-Sep-21,1.1585,1.138,1.34212225,1.295044
10:22:40,30-Sep-21,1.1585,1.137,1.34212225,1.292769
10:22:40,30-Sep-21,1.1435,1.137,1.30759225,1.292769
10:22:40,30-Sep-21,1.1435,1.137,1.30759225,1.292769
10:22:40,30-Sep-21,1.1435,1.137,1.30759225,1.292769
10:22:40,30-Sep-21,1.1435,1.137,1.30759225,1.292769
10:22:40,30-Sep-21,1.124,1.136,1.263376,1.290496
10:22:40,30-Sep-21,1.124,1.136,1.263376,1.290496
10:22:40,30-Sep-21,1.124,1.136,1.263376,1.290496
10:22:40,30-Sep-21,1.124,1.136,1.263376,1.290496
10:22:40,30-Sep-21,1.1195,1.136,1.25328025,1.290496
10:22:40,30-Sep-21,1.1195,1.136,1.25328025,1.290496
10:22:40,30-Sep-21,1.1145,1.136,1.24211025,1.290496
10:22:40,30-Sep-21,1.1145,1.136,1.24211025,1.290496
10:22:40,30-Sep-21,1.1195,1.136,1.25328025,1.290496
10:22:40,30-Sep-21,1.1195,1.136,1.25328025,1.290496
10:22:40,30-Sep-21,1.1195,1.136,1.25328025,1.290496
10:22:40,30-Sep-21,1.1195,1.136,1.25328025,1.290496
10:22:40,30-Sep-21,1.129,1.136,1.274641,1.290496
10:22:40,30-Sep-21,1.129,1.136,1.274641,1.290496
10:22:40,30-Sep-21,1.1535,1.137,1.33056225,1.292769
10:22:40,30-Sep-21,1.1535,1.137,1.33056225,1.292769
10:22:40,30-Sep-21,1.1585,1.137,1.34212225,1.292769
10:22:40,30-Sep-21,1.1585,1.137,1.34212225,1.292769
10:22:40,30-Sep-21,1.1585,1.137,1.34212225,1.292769
10:22:40,30-Sep-21,1.1585,1.137,1.34212225,1.292769
10:22:40,30-Sep-21,1.1585,1.137,1.34212225,1.292769
10:22:40,30-Sep-21,1.1535,1.138,1.33056225,1.295044
10:22:40,30-Sep-21,1.1535,1.138,1.33056225,1.295044
10:22:40,30-Sep-21,1.1535,1.138,1.33056225,1.295044
10:22:40,30-Sep-21,1.139,1.138,1.297321,1.295044
10:22:40,30-Sep-21,1.139,1.138,1.297321,1.295044
10:22:40,30-Sep-21,1.129,1.138,1.274641,1.295044
10:22:40,30-Sep-21,1.129,1.138,1.274641,1.295044
10:22:40,30-Sep-21,1.129,1.138,1.274641,1.295044
10:22:40,30-Sep-21,1.129,1.138,1.274641,1.295044
10:22:40,30-Sep-21,1.124,1.138,1.263376,1.295044
10:22:40,30-Sep-21,1.124,1.138,1.263376,1.295044
10:22:41,30-Sep-21,1.124,1.138,1.263376,1.295044
10:22:41,30-Sep-21,1.124,1.138,1.263376,1.295044
10:22:41,30-Sep-21,1.124,1.139,1.263376,1.297321
10:22:41,30-Sep-21,1.129,1.139,1.274641,1.297321
10:22:41,30-Sep-21,1.129,1.139,1.274641,1.297321
10:22:41,30-Sep-21,1.139,1.139,1.297321,1.297321
10:22:41,30-Sep-21,1.1435,1.14,1.30759225,1.2996
10:22:41,30-Sep-21,1.1435,1.14,1.30759225,1.2996
10:22:41,30-Sep-21,1.1435,1.14,1.30759225,1.2996
10:22:41,30-Sep-21,1.1585,1.141,1.34212225,1.301881
10:22:41,30-Sep-21,1.1585,1.141,1.34212225,1.301881
10:22:41,30-Sep-21,1.1585,1.142,1.34212225,1.304164
10:22:41,30-Sep-21,1.1535,1.142,1.33056225,1.304164
10:22:41,30-Sep-21,1.1535,1.143,1.33056225,1.306449
10:22:41,30-Sep-21,1.1535,1.144,1.33056225,1.308736
10:22:41,30-Sep-21,1.1485,1.144,1.31905225,1.308736
10:22:41,30-Sep-21,1.1485,1.145,1.31905225,1.311025
10:22:41,30-Sep-21,1.1435,1.146,1.30759225,1.313316
10:22:41,30-Sep-21,1.1435,1.147,1.30759225,1.315609
10:22:41,30-Sep-21,1.1435,1.147,1.30759225,1.315609
10:22:41,30-Sep-21,1.1435,1.148,1.30759225,1.317904
10:22:41,30-Sep-21,1.1435,1.149,1.30759225,1.320201
10:22:41,30-Sep-21,1.129,1.15,1.274641,1.3225
10:22:41,30-Sep-21,1.129,1.151,1.274641,1.324801
10:22:41,30-Sep-21,1.134,1.152,1.285956,1.327104
10:22:41,30-Sep-21,1.134,1.153,1.285956,1.329409
10:22:41,30-Sep-21,1.134,1.154,1.285956,1.331716
10:22:41,30-Sep-21,1.134,1.155,1.285956,1.334025
10:22:41,30-Sep-21,1.139,1.156,1.297321,1.336336
10:22:41,30-Sep-21,1.139,1.157,1.297321,1.338649
10:22:41,30-Sep-21,1.173,1.158,1.375929,1.340964
10:22:41,30-Sep-21,1.173,1.159,1.375929,1.343281
10:22:41,30-Sep-21,1.173,1.16,1.375929,1.3456
10:22:41,30-Sep-21,1.178,1.161,1.387684,1.347921
10:22:41,30-Sep-21,1.178,1.161,1.387684,1.347921
10:22:41,30-Sep-21,1.183,1.162,1.399489,1.350244
10:22:41,30-Sep-21,1.183,1.163,1.399489,1.352569
10:22:41,30-Sep-21,1.183,1.163,1.399489,1.352569
10:22:41,30-Sep-21,1.183,1.164,1.399489,1.354896
10:22:41,30-Sep-21,1.183,1.164,1.399489,1.354896
10:22:41,30-Sep-21,1.183,1.165,1.399489,1.357225
10:22:41,30-Sep-21,1.173,1.165,1.375929,1.357225
10:22:41,30-Sep-21,1.173,1.165,1.375929,1.357225
10:22:41,30-Sep-21,1.173,1.166,1.375929,1.359556
10:22:41,30-Sep-21,1.173,1.166,1.375929,1.359556
10:22:41,30-Sep-21,1.163,1.166,1.352569,1.359556
10:22:41,30-Sep-21,1.1485,1.166,1.31905225,1.359556
10:22:41,30-Sep-21,1.1485,1.166,1.31905225,1.359556
10:22:41,30-Sep-21,1.1435,1.166,1.30759225,1.359556
10:22:41,30-Sep-21,1.1435,1.166,1.30759225,1.359556
10:22:41,30-Sep-21,1.1485,1.167,1.31905225,1.361889
10:22:41,30-Sep-21,1.1485,1.167,1.31905225,1.361889
10:22:41,30-Sep-21,1.1485,1.167,1.31905225,1.361889
10:22:41,30-Sep-21,1.1585,1.167,1.34212225,1.361889
10:22:41,30-Sep-21,1.1585,1.167,1.34212225,1.361889
10:22:41,30-Sep-21,1.173,1.167,1.375929,1.361889
10:22:41,30-Sep-21,1.173,1.167,1.375929,1.361889
10:22:41,30-Sep-21,1.183,1.168,1.399489,1.364224
10:22:41,30-Sep-21,1.183,1.168,1.399489,1.364224
10:22:41,30-Sep-21,1.183,1.168,1.399489,1.364224
10:22:41,30-Sep-21,1.1875,1.169,1.41015625,1.366561
10:22:41,30-Sep-21,1.1875,1.169,1.41015625,1.366561
10:22:41,30-Sep-21,1.178,1.169,1.387684,1.366561
10:22:41,30-Sep-21,1.178,1.17,1.387684,1.3689
10:22:41,30-Sep-21,1.178,1.17,1.387684,1.3689
10:22:41,30-Sep-21,1.173,1.171,1.375929,1.371241
10:22:41,30-Sep-21,1.173,1.171,1.375929,1.371241
10:22:41,30-Sep-21,1.1585,1.172,1.34212225,1.373584
10:22:41,30-Sep-21,1.1585,1.173,1.34212225,1.375929
10:22:41,30-Sep-21,1.1535,1.173,1.33056225,1.375929
10:22:41,30-Sep-21,1.1535,1.174,1.33056225,1.378276
10:22:41,30-Sep-21,1.1535,1.175,1.33056225,1.380625
10:22:41,30-Sep-21,1.1485,1.175,1.31905225,1.380625
10:22:41,30-Sep-21,1.1485,1.176,1.31905225,1.382976
10:22:41,30-Sep-21,1.1535,1.177,1.33056225,1.385329
10:22:41,30-Sep-21,1.1535,1.178,1.33056225,1.387684
10:22:41,30-Sep-21,1.1875,1.178,1.41015625,1.387684
10:22:41,30-Sep-21,1.1875,1.179,1.41015625,1.390041
10:22:41,30-Sep-21,1.1925,1.18,1.42205625,1.3924
10:22:41,30-Sep-21,1.1925,1.18,1.42205625,1.3924
10:22:41,30-Sep-21,1.1925,1.181,1.42205625,1.394761
10:22:41,30-Sep-21,1.1925,1.181,1.42205625,1.394761
10:22:41,30-Sep-21,1.2025,1.181,1.44600625,1.394761
10:22:41,30-Sep-21,1.2025,1.182,1.44600625,1.397124
10:22:41,30-Sep-21,1.207,1.182,1.456849,1.397124
10:22:41,30-Sep-21,1.207,1.182,1.456849,1.397124
10:22:41,30-Sep-21,1.207,1.181,1.456849,1.394761
10:22:41,30-Sep-21,1.1875,1.181,1.41015625,1.394761
10:22:41,30-Sep-21,1.1875,1.181,1.41015625,1.394761
10:22:41,30-Sep-21,1.163,1.18,1.352569,1.3924
10:22:41,30-Sep-21,1.163,1.179,1.352569,1.390041
10:22:41,30-Sep-21,1.1535,1.179,1.33056225,1.390041
10:22:41,30-Sep-21,1.1585,1.178,1.34212225,1.387684
10:22:41,30-Sep-21,1.1585,1.176,1.34212225,1.382976
10:22:41,30-Sep-21,1.168,1.175,1.364224,1.380625
10:22:41,30-Sep-21,1.183,1.174,1.399489,1.378276
10:22:41,30-Sep-21,1.1925,1.172,1.42205625,1.373584
10:22:41,30-Sep-21,1.1925,1.171,1.42205625,1.371241
10:22:41,30-Sep-21,1.1925,1.169,1.42205625,1.366561
10:22:41,30-Sep-21,1.178,1.167,1.387684,1.361889
10:22:41,30-Sep-21,1.168,1.165,1.364224,1.357225
10:22:41,30-Sep-21,1.168,1.163,1.364224,1.352569
10:22:41,30-Sep-21,1.1435,1.161,1.30759225,1.347921
10:22:41,30-Sep-21,1.1435,1.159,1.30759225,1.343281
10:22:41,30-Sep-21,1.139,1.157,1.297321,1.338649
10:22:41,30-Sep-21,1.134,1.154,1.285956,1.331716
10:22:41,30-Sep-21,1.129,1.152,1.274641,1.327104
10:22:42,30-Sep-21,1.129,1.15,1.274641,1.3225
10:22:42,30-Sep-21,1.134,1.147,1.285956,1.315609
10:22:42,30-Sep-21,1.1585,1.145,1.34212225,1.311025
10:22:42,30-Sep-21,1.1585,1.142,1.34212225,1.304164
10:22:42,30-Sep-21,1.1585,1.14,1.34212225,1.2996
10:22:42,30-Sep-21,1.1585,1.137,1.34212225,1.292769
10:22:42,30-Sep-21,1.1535,1.135,1.33056225,1.288225
10:22:42,30-Sep-21,1.1535,1.132,1.33056225,1.281424
10:22:42,30-Sep-21,1.134,1.129,1.285956,1.274641
10:22:42,30-Sep-21,1.124,1.127,1.263376,1.270129
10:22:42,30-Sep-21,1.1045,1.124,1.21992025,1.263376
10:22:42,30-Sep-21,1.1045,1.122,1.21992025,1.258884
10:22:42,30-Sep-21,1.1045,1.119,1.21992025,1.252161
10:22:42,30-Sep-21,1.1045,1.117,1.21992025,1.247689
10:22:42,30-Sep-21,1.1045,1.115,1.21992025,1.243225
10:22:42,30-Sep-21,1.1145,1.112,1.24211025,1.236544
10:22:42,30-Sep-21,1.124,1.11,1.263376,1.2321
10:22:42,30-Sep-21,1.124,1.108,1.263376,1.227664
10:22:42,30-Sep-21,1.124,1.106,1.263376,1.223236
10:22:42,30-Sep-21,1.124,1.104,1.263376,1.218816
10:22:42,30-Sep-21,1.1145,1.102,1.24211025,1.214404
10:22:42,30-Sep-21,1.1045,1.101,1.21992025,1.212201
10:22:42,30-Sep-21,1.1045,1.099,1.21992025,1.207801
10:22:42,30-Sep-21,1.085,1.097,1.177225,1.203409
10:22:42,30-Sep-21,1.085,1.096,1.177225,1.201216
10:22:42,30-Sep-21,1.085,1.095,1.177225,1.199025
10:22:42,30-Sep-21,1.08,1.094,1.1664,1.196836
10:22:42,30-Sep-21,1.0755,1.093,1.15670025,1.194649
10:22:42,30-Sep-21,1.0705,1.092,1.14597025,1.192464
10:22:42,30-Sep-21,1.0705,1.091,1.14597025,1.190281
10:22:42,30-Sep-21,1.0755,1.09,1.15670025,1.1881
10:22:42,30-Sep-21,1.0755,1.09,1.15670025,1.1881
10:22:42,30-Sep-21,1.0755,1.09,1.15670025,1.1881
10:22:42,30-Sep-21,1.0995,1.089,1.20890025,1.185921
10:22:42,30-Sep-21,1.0995,1.089,1.20890025,1.185921
10:22:42,30-Sep-21,1.1045,1.089,1.21992025,1.185921
10:22:42,30-Sep-21,1.1095,1.089,1.23099025,1.185921
10:22:42,30-Sep-21,1.1095,1.09,1.23099025,1.1881
10:22:42,30-Sep-21,1.1045,1.09,1.21992025,1.1881
10:22:42,30-Sep-21,1.1045,1.09,1.21992025,1.1881
10:22:42,30-Sep-21,1.095,1.091,1.199025,1.190281
10:22:42,30-Sep-21,1.095,1.092,1.199025,1.192464
10:22:42,30-Sep-21,1.09,1.092,1.1881,1.192464
10:22:42,30-Sep-21,1.09,1.093,1.1881,1.194649
10:22:42,30-Sep-21,1.09,1.094,1.1881,1.196836
10:22:42,30-Sep-21,1.09,1.095,1.1881,1.199025
10:22:42,30-Sep-21,1.08,1.096,1.1664,1.201216
10:22:42,30-Sep-21,1.08,1.097,1.1664,1.203409
10:22:42,30-Sep-21,1.08,1.098,1.1664,1.205604
10:22:42,30-Sep-21,1.09,1.099,1.1881,1.207801
10:22:42,30-Sep-21,1.09,1.1,1.1881,1.21
10:22:42,30-Sep-21,1.09,1.101,1.1881,1.212201
10:22:42,30-Sep-21,1.0995,1.102,1.20890025,1.214404
10:22:42,30-Sep-21,1.1195,1.103,1.25328025,1.216609
10:22:42,30-Sep-21,1.1195,1.104,1.25328025,1.218816
10:22:42,30-Sep-21,1.124,1.106,1.263376,1.223236
10:22:42,30-Sep-21,1.124,1.107,1.263376,1.225449
10:22:42,30-Sep-21,1.124,1.108,1.263376,1.227664
10:22:42,30-Sep-21,1.124,1.109,1.263376,1.229881
10:22:42,30-Sep-21,1.124,1.11,1.263376,1.2321
10:22:42,30-Sep-21,1.1195,1.112,1.25328025,1.236544
10:22:42,30-Sep-21,1.1195,1.113,1.25328025,1.238769
10:22:42,30-Sep-21,1.1195,1.114,1.25328025,1.240996
10:22:42,30-Sep-21,1.1195,1.115,1.25328025,1.243225
10:22:42,30-Sep-21,1.1195,1.117,1.25328025,1.247689
10:22:42,30-Sep-21,1.1195,1.118,1.25328025,1.249924
10:22:42,30-Sep-21,1.1195,1.119,1.25328025,1.252161
10:22:42,30-Sep-21,1.1045,1.121,1.21992025,1.256641
10:22:42,30-Sep-21,1.1045,1.122,1.21992025,1.258884
10:22:42,30-Sep-21,1.1045,1.124,1.21992025,1.263376
10:22:42,30-Sep-21,1.1045,1.125,1.21992025,1.265625
10:22:42,30-Sep-21,1.1045,1.127,1.21992025,1.270129
10:22:42,30-Sep-21,1.1045,1.128,1.21992025,1.272384
10:22:42,30-Sep-21,1.1095,1.13,1.23099025,1.2769
10:22:42,30-Sep-21,1.1095,1.131,1.23099025,1.279161
10:22:42,30-Sep-21,1.134,1.133,1.285956,1.283689
10:22:42,30-Sep-21,1.1485,1.135,1.31905225,1.288225
10:22:42,30-Sep-21,1.1485,1.136,1.31905225,1.290496
10:22:42,30-Sep-21,1.1485,1.138,1.31905225,1.295044
10:22:42,30-Sep-21,1.163,1.14,1.352569,1.2996
10:22:42,30-Sep-21,1.163,1.142,1.352569,1.304164
10:22:42,30-Sep-21,1.163,1.143,1.352569,1.306449
10:22:42,30-Sep-21,1.168,1.145,1.364224,1.311025
10:22:42,30-Sep-21,1.168,1.147,1.364224,1.315609
10:22:42,30-Sep-21,1.1535,1.149,1.33056225,1.320201
10:22:42,30-Sep-21,1.1535,1.151,1.33056225,1.324801
10:22:42,30-Sep-21,1.1535,1.152,1.33056225,1.327104
10:22:42,30-Sep-21,1.1485,1.154,1.31905225,1.331716
10:22:42,30-Sep-21,1.134,1.156,1.285956,1.336336
10:22:42,30-Sep-21,1.134,1.158,1.285956,1.340964
10:22:42,30-Sep-21,1.134,1.159,1.285956,1.343281
10:22:42,30-Sep-21,1.134,1.161,1.285956,1.347921
10:22:42,30-Sep-21,1.1435,1.163,1.30759225,1.352569
10:22:42,30-Sep-21,1.1435,1.164,1.30759225,1.354896
10:22:42,30-Sep-21,1.1535,1.166,1.33056225,1.359556
10:22:42,30-Sep-21,1.183,1.167,1.399489,1.361889
10:22:43,30-Sep-21,1.183,1.169,1.399489,1.366561
10:22:43,30-Sep-21,1.183,1.17,1.399489,1.3689
10:22:43,30-Sep-21,1.1875,1.172,1.41015625,1.373584
10:22:43,30-Sep-21,1.1875,1.173,1.41015625,1.375929
10:22:43,30-Sep-21,1.1925,1.174,1.42205625,1.378276
10:22:43,30-Sep-21,1.1925,1.176,1.42205625,1.382976
10:22:43,30-Sep-21,1.1925,1.177,1.42205625,1.385329
10:22:43,30-Sep-21,1.1925,1.178,1.42205625,1.387684
10:22:43,30-Sep-21,1.1925,1.179,1.42205625,1.390041
10:22:43,30-Sep-21,1.1925,1.18,1.42205625,1.3924
10:22:43,30-Sep-21,1.173,1.181,1.375929,1.394761
10:22:43,30-Sep-21,1.173,1.181,1.375929,1.394761
10:22:43,30-Sep-21,1.168,1.182,1.364224,1.397124
10:22:43,30-Sep-21,1.168,1.183,1.364224,1.399489
10:22:43,30-Sep-21,1.163,1.183,1.352569,1.399489
10:22:43,30-Sep-21,1.163,1.184,1.352569,1.401856
10:22:43,30-Sep-21,1.163,1.184,1.352569,1.401856
10:22:43,30-Sep-21,1.163,1.185,1.352569,1.404225
10:22:43,30-Sep-21,1.183,1.185,1.399489,1.404225
10:22:43,30-Sep-21,1.183,1.185,1.399489,1.404225
10:22:43,30-Sep-21,1.1925,1.185,1.42205625,1.404225
10:22:43,30-Sep-21,1.1925,1.185,1.42205625,1.404225
10:22:43,30-Sep-21,1.2025,1.185,1.44600625,1.404225
10:22:43,30-Sep-21,1.2025,1.185,1.44600625,1.404225
10:22:43,30-Sep-21,1.1975,1.185,1.43400625,1.404225
10:22:43,30-Sep-21,1.1975,1.185,1.43400625,1.404225
10:22:43,30-Sep-21,1.1975,1.184,1.43400625,1.401856
10:22:43,30-Sep-21,1.1975,1.184,1.43400625,1.401856
10:22:43,30-Sep-21,1.1875,1.183,1.41015625,1.399489
10:22:43,30-Sep-21,1.1875,1.183,1.41015625,1.399489
10:22:43,30-Sep-21,1.183,1.182,1.399489,1.397124
10:22:43,30-Sep-21,1.183,1.181,1.399489,1.394761
10:22:43,30-Sep-21,1.163,1.18,1.352569,1.3924
10:22:43,30-Sep-21,1.1585,1.179,1.34212225,1.390041
10:22:43,30-Sep-21,1.1585,1.178,1.34212225,1.387684
10:22:43,30-Sep-21,1.1585,1.177,1.34212225,1.385329
10:22:43,30-Sep-21,1.1535,1.176,1.33056225,1.382976
10:22:43,30-Sep-21,1.1535,1.174,1.33056225,1.378276
10:22:43,30-Sep-21,1.1535,1.173,1.33056225,1.375929
10:22:43,30-Sep-21,1.1535,1.171,1.33056225,1.371241
10:22:43,30-Sep-21,1.173,1.17,1.375929,1.3689
10:22:43,30-Sep-21,1.173,1.168,1.375929,1.364224
10:22:43,30-Sep-21,1.178,1.166,1.387684,1.359556
10:22:43,30-Sep-21,1.178,1.164,1.387684,1.354896
10:22:43,30-Sep-21,1.178,1.162,1.387684,1.350244
10:22:43,30-Sep-21,1.183,1.16,1.399489,1.3456
10:22:43,30-Sep-21,1.183,1.157,1.399489,1.338649
10:22:43,30-Sep-21,1.173,1.155,1.375929,1.334025
10:22:43,30-Sep-21,1.173,1.152,1.375929,1.327104
10:22:43,30-Sep-21,1.163,1.15,1.352569,1.3225
10:22:43,30-Sep-21,1.1435,1.147,1.30759225,1.315609
10:22:43,30-Sep-21,1.1435,1.144,1.30759225,1.308736
10:22:43,30-Sep-21,1.134,1.141,1.285956,1.301881
10:22:43,30-Sep-21,1.134,1.138,1.285956,1.295044
10:22:43,30-Sep-21,1.1195,1.135,1.25328025,1.288225
10:22:43,30-Sep-21,1.1195,1.131,1.25328025,1.279161
10:22:43,30-Sep-21,1.1195,1.128,1.25328025,1.272384
10:22:43,30-Sep-21,1.1145,1.125,1.24211025,1.265625
10:22:43,30-Sep-21,1.1145,1.121,1.24211025,1.256641
10:22:43,30-Sep-21,1.1195,1.118,1.25328025,1.249924
10:22:43,30-Sep-21,1.1195,1.115,1.25328025,1.243225
10:22:43,30-Sep-21,1.1195,1.111,1.25328025,1.234321
10:22:43,30-Sep-21,1.1195,1.108,1.25328025,1.227664
10:22:43,30-Sep-21,1.1195,1.104,1.25328025,1.218816
10:22:43,30-Sep-21,1.1145,1.101,1.24211025,1.212201
10:22:43,30-Sep-21,1.1145,1.098,1.24211025,1.205604
10:22:43,30-Sep-21,1.1145,1.095,1.24211025,1.199025
10:22:43,30-Sep-21,1.1045,1.092,1.21992025,1.192464
10:22:43,30-Sep-21,1.09,1.089,1.1881,1.185921
10:22:43,30-Sep-21,1.09,1.086,1.1881,1.179396
10:22:43,30-Sep-21,1.0755,1.083,1.15670025,1.172889
10:22:43,30-Sep-21,1.0755,1.081,1.15670025,1.168561
10:22:43,30-Sep-21,1.0755,1.079,1.15670025,1.164241
10:22:43,30-Sep-21,1.0605,1.076,1.12466025,1.157776
10:22:43,30-Sep-21,1.0605,1.075,1.12466025,1.155625
10:22:43,30-Sep-21,1.046,1.073,1.094116,1.151329
10:22:43,30-Sep-21,1.046,1.071,1.094116,1.147041
10:22:43,30-Sep-21,1.046,1.07,1.094116,1.1449
10:22:43,30-Sep-21,1.046,1.069,1.094116,1.142761
10:22:43,30-Sep-21,1.051,1.068,1.104601,1.140624
10:22:43,30-Sep-21,1.051,1.068,1.104601,1.140624
10:22:43,30-Sep-21,1.0605,1.067,1.12466025,1.138489
10:22:43,30-Sep-21,1.085,1.067,1.177225,1.138489
10:22:43,30-Sep-21,1.09,1.067,1.1881,1.138489
10:22:43,30-Sep-21,1.09,1.068,1.1881,1.140624
10:22:43,30-Sep-21,1.085,1.068,1.177225,1.140624
10:22:43,30-Sep-21,1.085,1.069,1.177225,1.142761
10:22:43,30-Sep-21,1.08,1.07,1.1664,1.1449
10:22:43,30-Sep-21,1.0655,1.071,1.13529025,1.147041
10:22:43,30-Sep-21,1.0655,1.072,1.13529025,1.149184
10:22:43,30-Sep-21,1.0655,1.074,1.13529025,1.153476
10:22:43,30-Sep-21,1.0655,1.075,1.13529025,1.155625
10:22:43,30-Sep-21,1.0605,1.077,1.12466025,1.159929
10:22:43,30-Sep-21,1.0605,1.078,1.12466025,1.162084
10:22:43,30-Sep-21,1.0655,1.08,1.13529025,1.1664
10:22:43,30-Sep-21,1.0655,1.082,1.13529025,1.170724
10:22:43,30-Sep-21,1.0655,1.084,1.13529025,1.175056
10:22:43,30-Sep-21,1.0755,1.086,1.15670025,1.179396
10:22:43,30-Sep-21,1.0755,1.088,1.15670025,1.183744
10:22:43,30-Sep-21,1.0995,1.09,1.20890025,1.1881
10:22:43,30-Sep-21,1.1145,1.092,1.24211025,1.192464
10:22:43,30-Sep-21,1.1145,1.094,1.24211025,1.196836
10:22:43,30-Sep-21,1.124,1.096,1.263376,1.201216
10:22:43,30-Sep-21,1.124,1.098,1.263376,1.205604
10:22:43,30-Sep-21,1.124,1.099,1.263376,1.207801
10:22:43,30-Sep-21,1.124,1.101,1.263376,1.212201
10:22:44,30-Sep-21,1.124,1.103,1.263376,1.216609
10:22:44,30-Sep-21,1.129,1.105,1.274641,1.221025
10:22:44,30-Sep-21,1.129,1.106,1.274641,1.223236
10:22:44,30-Sep-21,1.1195,1.108,1.25328025,1.227664
10:22:44,30-Sep-21,1.1195,1.109,1.25328025,1.229881
10:22:44,30-Sep-21,1.1145,1.111,1.24211025,1.234321
10:22:44,30-Sep-21,1.1145,1.112,1.24211025,1.236544
10:22:44,30-Sep-21,1.0995,1.114,1.20890025,1.240996
10:22:44,30-Sep-21,1.0995,1.115,1.20890025,1.243225
10:22:44,30-Sep-21,1.095,1.116,1.199025,1.245456
10:22:44,30-Sep-21,1.095,1.118,1.199025,1.249924
10:22:44,30-Sep-21,1.0995,1.119,1.20890025,1.252161
10:22:44,30-Sep-21,1.0995,1.121,1.20890025,1.256641
10:22:44,30-Sep-21,1.1095,1.122,1.23099025,1.258884
10:22:44,30-Sep-21,1.1095,1.124,1.23099025,1.263376
10:22:44,30-Sep-21,1.134,1.125,1.285956,1.265625
10:22:44,30-Sep-21,1.134,1.127,1.285956,1.270129
10:22:44,30-Sep-21,1.134,1.128,1.285956,1.272384
10:22:44,30-Sep-21,1.129,1.13,1.274641,1.2769
10:22:44,30-Sep-21,1.1145,1.131,1.24211025,1.279161
10:22:44,30-Sep-21,1.1145,1.133,1.24211025,1.283689
10:22:44,30-Sep-21,1.1145,1.135,1.24211025,1.288225
10:22:44,30-Sep-21,1.1095,1.136,1.23099025,1.290496
10:22:44,30-Sep-21,1.1095,1.138,1.23099025,1.295044
10:22:44,30-Sep-21,1.1145,1.139,1.24211025,1.297321
10:22:44,30-Sep-21,1.1435,1.141,1.30759225,1.301881
10:22:44,30-Sep-21,1.1585,1.142,1.34212225,1.304164
10:22:44,30-Sep-21,1.1585,1.144,1.34212225,1.308736
10:22:44,30-Sep-21,1.173,1.145,1.375929,1.311025
10:22:44,30-Sep-21,1.173,1.146,1.375929,1.313316
10:22:44,30-Sep-21,1.173,1.147,1.375929,1.315609
10:22:44,30-Sep-21,1.163,1.148,1.352569,1.317904
10:22:44,30-Sep-21,1.163,1.149,1.352569,1.320201
10:22:44,30-Sep-21,1.163,1.15,1.352569,1.3225
10:22:44,30-Sep-21,1.139,1.15,1.297321,1.3225
10:22:44,30-Sep-21,1.139,1.151,1.297321,1.324801
10:22:44,30-Sep-21,1.139,1.151,1.297321,1.324801
10:22:44,30-Sep-21,1.139,1.151,1.297321,1.324801
10:22:44,30-Sep-21,1.1435,1.151,1.30759225,1.324801
10:22:44,30-Sep-21,1.1435,1.151,1.30759225,1.324801
10:22:44,30-Sep-21,1.163,1.151,1.352569,1.324801
10:22:44,30-Sep-21,1.163,1.15,1.352569,1.3225
10:22:44,30-Sep-21,1.163,1.149,1.352569,1.320201
10:22:44,30-Sep-21,1.1585,1.148,1.34212225,1.317904
10:22:44,30-Sep-21,1.1585,1.147,1.34212225,1.315609
10:22:44,30-Sep-21,1.1585,1.146,1.34212225,1.313316
10:22:44,30-Sep-21,1.1535,1.145,1.33056225,1.311025
10:22:44,30-Sep-21,1.139,1.143,1.297321,1.306449
10:22:44,30-Sep-21,1.139,1.142,1.297321,1.304164
10:22:44,30-Sep-21,1.139,1.14,1.297321,1.2996
10:22:44,30-Sep-21,1.139,1.138,1.297321,1.295044
10:22:44,30-Sep-21,1.134,1.136,1.285956,1.290496
10:22:44,30-Sep-21,1.134,1.134,1.285956,1.285956
10:22:44,30-Sep-21,1.134,1.132,1.285956,1.281424
10:22:44,30-Sep-21,1.124,1.13,1.263376,1.2769
10:22:44,30-Sep-21,1.124,1.128,1.263376,1.272384
10:22:44,30-Sep-21,1.124,1.125,1.263376,1.265625
10:22:44,30-Sep-21,1.1095,1.123,1.23099025,1.261129
10:22:44,30-Sep-21,1.1095,1.121,1.23099025,1.256641
10:22:44,30-Sep-21,1.1095,1.119,1.23099025,1.252161
10:22:44,30-Sep-21,1.1095,1.116,1.23099025,1.245456
10:22:44,30-Sep-21,1.1095,1.114,1.23099025,1.240996
10:22:44,30-Sep-21,1.1145,1.112,1.24211025,1.236544
10:22:44,30-Sep-21,1.1095,1.11,1.23099025,1.2321
10:22:44,30-Sep-21,1.1095,1.108,1.23099025,1.227664
10:22:44,30-Sep-21,1.1095,1.106,1.23099025,1.223236
10:22:44,30-Sep-21,1.1095,1.104,1.23099025,1.218816
10:22:44,30-Sep-21,1.1145,1.102,1.24211025,1.214404
10:22:44,30-Sep-21,1.1145,1.1,1.24211025,1.21
10:22:44,30-Sep-21,1.1095,1.099,1.23099025,1.207801
10:22:44,30-Sep-21,1.1045,1.097,1.21992025,1.203409
10:22:44,30-Sep-21,1.1045,1.096,1.21992025,1.201216
10:22:44,30-Sep-21,1.1045,1.094,1.21992025,1.196836
10:22:44,30-Sep-21,1.09,1.093,1.1881,1.194649
10:22:44,30-Sep-21,1.09,1.092,1.1881,1.192464
10:22:44,30-Sep-21,1.09,1.092,1.1881,1.192464
10:22:44,30-Sep-21,1.0755,1.091,1.15670025,1.190281
10:22:44,30-Sep-21,1.0755,1.091,1.15670025,1.190281
10:22:44,30-Sep-21,1.0755,1.091,1.15670025,1.190281
10:22:44,30-Sep-21,1.0755,1.09,1.15670025,1.1881
10:22:44,30-Sep-21,1.0755,1.091,1.15670025,1.190281
10:22:44,30-Sep-21,1.0755,1.091,1.15670025,1.190281
10:22:44,30-Sep-21,1.0755,1.092,1.15670025,1.192464
10:22:44,30-Sep-21,1.0995,1.092,1.20890025,1.192464
10:22:44,30-Sep-21,1.0995,1.093,1.20890025,1.194649
10:22:44,30-Sep-21,1.1045,1.094,1.21992025,1.196836
10:22:44,30-Sep-21,1.1095,1.095,1.23099025,1.199025
10:22:44,30-Sep-21,1.1095,1.097,1.23099025,1.203409
10:22:45,30-Sep-21,1.1095,1.098,1.23099025,1.205604
10:22:45,30-Sep-21,1.0995,1.1,1.20890025,1.21
10:22:45,30-Sep-21,1.0995,1.102,1.20890025,1.214404
10:22:45,30-Sep-21,1.0995,1.103,1.20890025,1.216609
10:22:45,30-Sep-21,1.09,1.105,1.1881,1.221025
10:22:45,30-Sep-21,1.09,1.107,1.1881,1.225449
10:22:45,30-Sep-21,1.09,1.109,1.1881,1.229881
10:22:45,30-Sep-21,1.1045,1.112,1.21992025,1.236544
10:22:45,30-Sep-21,1.1145,1.114,1.24211025,1.240996
10:22:45,30-Sep-21,1.1145,1.116,1.24211025,1.245456
10:22:45,30-Sep-21,1.124,1.118,1.263376,1.249924
10:22:45,30-Sep-21,1.124,1.12,1.263376,1.2544
10:22:45,30-Sep-21,1.139,1.123,1.297321,1.261129
10:22:45,30-Sep-21,1.139,1.125,1.297321,1.265625
10:22:45,30-Sep-21,1.134,1.127,1.285956,1.270129
10:22:45,30-Sep-21,1.134,1.129,1.285956,1.274641
10:22:45,30-Sep-21,1.134,1.13,1.285956,1.2769
10:22:45,30-Sep-21,1.124,1.132,1.263376,1.281424
10:22:45,30-Sep-21,1.124,1.134,1.263376,1.285956
10:22:45,30-Sep-21,1.1195,1.135,1.25328025,1.288225
10:22:45,30-Sep-21,1.1195,1.136,1.25328025,1.290496
10:22:45,30-Sep-21,1.124,1.138,1.263376,1.295044
10:22:45,30-Sep-21,1.124,1.138,1.263376,1.295044
10:22:45,30-Sep-21,1.129,1.139,1.274641,1.297321
10:22:45,30-Sep-21,1.1535,1.14,1.33056225,1.2996
10:22:45,30-Sep-21,1.163,1.14,1.352569,1.2996
10:22:45,30-Sep-21,1.163,1.14,1.352569,1.2996
10:22:45,30-Sep-21,1.163,1.14,1.352569,1.2996
10:22:45,30-Sep-21,1.163,1.14,1.352569,1.2996
10:22:45,30-Sep-21,1.163,1.139,1.352569,1.297321
10:22:45,30-Sep-21,1.1435,1.138,1.30759225,1.295044
10:22:45,30-Sep-21,1.1435,1.137,1.30759225,1.292769
10:22:45,30-Sep-21,1.129,1.136,1.274641,1.290496
10:22:45,30-Sep-21,1.124,1.135,1.263376,1.288225
10:22:45,30-Sep-21,1.124,1.133,1.263376,1.283689
10:22:45,30-Sep-21,1.124,1.131,1.263376,1.279161
10:22:45,30-Sep-21,1.124,1.129,1.263376,1.274641
10:22:45,30-Sep-21,1.134,1.127,1.285956,1.270129
10:22:45,30-Sep-21,1.1435,1.125,1.30759225,1.265625
10:22:45,30-Sep-21,1.1535,1.123,1.33056225,1.261129
10:22:45,30-Sep-21,1.1485,1.12,1.31905225,1.2544
10:22:45,30-Sep-21,1.134,1.118,1.285956,1.249924
10:22:45,30-Sep-21,1.134,1.115,1.285956,1.243225
10:22:45,30-Sep-21,1.1195,1.113,1.25328025,1.238769
10:22:45,30-Sep-21,1.1195,1.11,1.25328025,1.2321
10:22:45,30-Sep-21,1.09,1.107,1.1881,1.225449
10:22:45,30-Sep-21,1.0755,1.105,1.15670025,1.221025
10:22:45,30-Sep-21,1.0605,1.102,1.12466025,1.214404
10:22:45,30-Sep-21,1.0605,1.1,1.12466025,1.21
10:22:45,30-Sep-21,1.0605,1.097,1.12466025,1.203409
10:22:45,30-Sep-21,1.0655,1.095,1.13529025,1.199025
10:22:45,30-Sep-21,1.0655,1.093,1.13529025,1.194649
10:22:45,30-Sep-21,1.0995,1.091,1.20890025,1.190281
10:22:45,30-Sep-21,1.0995,1.089,1.20890025,1.185921
10:22:45,30-Sep-21,1.0995,1.087,1.20890025,1.181569
10:22:45,30-Sep-21,1.0995,1.085,1.20890025,1.177225
10:22:45,30-Sep-21,1.095,1.084,1.199025,1.175056
10:22:45,30-Sep-21,1.095,1.082,1.199025,1.170724
10:22:45,30-Sep-21,1.085,1.081,1.177225,1.168561
10:22:45,30-Sep-21,1.0755,1.08,1.15670025,1.1664
10:22:45,30-Sep-21,1.0755,1.079,1.15670025,1.164241
10:22:45,30-Sep-21,1.0655,1.078,1.13529025,1.162084
10:22:45,30-Sep-21,1.0655,1.078,1.13529025,1.162084
10:22:45,30-Sep-21,1.0655,1.077,1.13529025,1.159929
10:22:45,30-Sep-21,1.0605,1.077,1.12466025,1.159929
10:22:45,30-Sep-21,1.0605,1.076,1.12466025,1.157776
10:22:45,30-Sep-21,1.0655,1.076,1.13529025,1.157776
10:22:45,30-Sep-21,1.08,1.076,1.1664,1.157776
10:22:45,30-Sep-21,1.08,1.076,1.1664,1.157776
10:22:45,30-Sep-21,1.09,1.076,1.1881,1.157776
10:22:45,30-Sep-21,1.09,1.077,1.1881,1.159929
10:22:45,30-Sep-21,1.1045,1.077,1.21992025,1.159929
10:22:45,30-Sep-21,1.1045,1.077,1.21992025,1.159929
10:22:45,30-Sep-21,1.1095,1.078,1.23099025,1.162084
10:22:45,30-Sep-21,1.0995,1.078,1.20890025,1.162084
10:22:45,30-Sep-21,1.095,1.079,1.199025,1.164241
10:22:45,30-Sep-21,1.095,1.08,1.199025,1.1664
10:22:45,30-Sep-21,1.095,1.08,1.199025,1.1664
10:22:45,30-Sep-21,1.0705,1.081,1.14597025,1.168561
10:22:46,30-Sep-21,1.0705,1.082,1.14597025,1.170724
10:22:46,30-Sep-21,1.0705,1.083,1.14597025,1.172889
10:22:46,30-Sep-21,1.0705,1.084,1.14597025,1.175056
10:22:46,30-Sep-21,1.0655,1.085,1.13529025,1.177225
10:22:46,30-Sep-21,1.0655,1.086,1.13529025,1.179396
10:22:46,30-Sep-21,1.0655,1.087,1.13529025,1.181569
10:22:46,30-Sep-21,1.0705,1.088,1.14597025,1.183744
10:22:46,30-Sep-21,1.0705,1.09,1.14597025,1.1881
10:22:46,30-Sep-21,1.0705,1.091,1.14597025,1.190281
10:22:46,30-Sep-21,1.08,1.092,1.1664,1.192464
10:22:46,30-Sep-21,1.08,1.093,1.1664,1.194649
10:22:46,30-Sep-21,1.08,1.095,1.1664,1.199025
10:22:46,30-Sep-21,1.1095,1.096,1.23099025,1.201216
10:22:46,30-Sep-21,1.1095,1.097,1.23099025,1.203409
10:22:46,30-Sep-21,1.1095,1.098,1.23099025,1.205604
10:22:46,30-Sep-21,1.1095,1.099,1.23099025,1.207801
10:22:46,30-Sep-21,1.1095,1.101,1.23099025,1.212201
10:22:46,30-Sep-21,1.1195,1.102,1.25328025,1.214404
10:22:46,30-Sep-21,1.1195,1.103,1.25328025,1.216609
10:22:46,30-Sep-21,1.1195,1.104,1.25328025,1.218816
10:22:46,30-Sep-21,1.124,1.105,1.263376,1.221025
10:22:46,30-Sep-21,1.124,1.105,1.263376,1.221025
10:22:46,30-Sep-21,1.1195,1.106,1.25328025,1.223236
10:22:46,30-Sep-21,1.1195,1.107,1.25328025,1.225449
10:22:46,30-Sep-21,1.1095,1.107,1.23099025,1.225449
10:22:46,30-Sep-21,1.1095,1.108,1.23099025,1.227664
10:22:46,30-Sep-21,1.1095,1.108,1.23099025,1.227664
10:22:46,30-Sep-21,1.1095,1.109,1.23099025,1.229881
10:22:46,30-Sep-21,1.1095,1.109,1.23099025,1.229881
10:22:46,30-Sep-21,1.1045,1.109,1.21992025,1.229881
10:22:46,30-Sep-21,1.095,1.109,1.199025,1.229881
10:22:46,30-Sep-21,1.095,1.109,1.199025,1.229881
10:22:46,30-Sep-21,1.085,1.11,1.177225,1.2321
10:22:46,30-Sep-21,1.085,1.11,1.177225,1.2321
10:22:46,30-Sep-21,1.085,1.11,1.177225,1.2321
10:22:46,30-Sep-21,1.095,1.11,1.199025,1.2321
10:22:46,30-Sep-21,1.095,1.11,1.199025,1.2321
10:22:46,30-Sep-21,1.1095,1.11,1.23099025,1.2321
10:22:46,30-Sep-21,1.1095,1.11,1.23099025,1.2321
10:22:46,30-Sep-21,1.1095,1.109,1.23099025,1.229881
10:22:46,30-Sep-21,1.129,1.109,1.274641,1.229881
10:22:46,30-Sep-21,1.129,1.109,1.274641,1.229881
10:22:46,30-Sep-21,1.129,1.109,1.274641,1.229881
10:22:46,30-Sep-21,1.124,1.109,1.263376,1.229881
10:22:46,30-Sep-21,1.124,1.109,1.263376,1.229881
10:22:46,30-Sep-21,1.124,1.108,1.263376,1.227664
10:22:46,30-Sep-21,1.1195,1.108,1.25328025,1.227664
10:22:46,30-Sep-21,1.1095,1.108,1.23099025,1.227664
10:22:46,30-Sep-21,1.1095,1.107,1.23099025,1.225449
10:22:46,30-Sep-21,1.095,1.107,1.199025,1.225449
10:22:46,30-Sep-21,1.095,1.107,1.199025,1.225449
10:22:46,30-Sep-21,1.09,1.107,1.1881,1.225449
10:22:46,30-Sep-21,1.09,1.106,1.1881,1.223236
10:22:46,30-Sep-21,1.09,1.106,1.1881,1.223236
10:22:46,30-Sep-21,1.09,1.106,1.1881,1.223236
10:22:46,30-Sep-21,1.095,1.106,1.199025,1.223236
10:22:46,30-Sep-21,1.095,1.105,1.199025,1.221025
10:22:46,30-Sep-21,1.1145,1.105,1.24211025,1.221025
10:22:46,30-Sep-21,1.1195,1.105,1.25328025,1.221025
10:22:46,30-Sep-21,1.1195,1.105,1.25328025,1.221025
10:22:46,30-Sep-21,1.124,1.105,1.263376,1.221025
10:22:46,30-Sep-21,1.124,1.105,1.263376,1.221025
10:22:46,30-Sep-21,1.124,1.105,1.263376,1.221025
10:22:46,30-Sep-21,1.1195,1.105,1.25328025,1.221025
10:22:46,30-Sep-21,1.1145,1.105,1.24211025,1.221025
10:22:46,30-Sep-21,1.1145,1.105,1.24211025,1.221025
10:22:46,30-Sep-21,1.0995,1.105,1.20890025,1.221025
10:22:46,30-Sep-21,1.0995,1.105,1.20890025,1.221025
10:22:46,30-Sep-21,1.08,1.105,1.1664,1.221025
10:22:46,30-Sep-21,1.08,1.106,1.1664,1.223236
10:22:46,30-Sep-21,1.08,1.106,1.1664,1.223236
10:22:46,30-Sep-21,1.085,1.106,1.177225,1.223236
10:22:46,30-Sep-21,1.085,1.107,1.177225,1.225449
10:22:46,30-Sep-21,1.095,1.107,1.199025,1.225449
10:22:46,30-Sep-21,1.1195,1.108,1.25328025,1.227664
10:22:46,30-Sep-21,1.1195,1.108,1.25328025,1.227664
10:22:46,30-Sep-21,1.1195,1.109,1.25328025,1.229881
10:22:46,30-Sep-21,1.1195,1.11,1.25328025,1.2321
10:22:46,30-Sep-21,1.1195,1.11,1.25328025,1.2321
10:22:46,30-Sep-21,1.1195,1.111,1.25328025,1.234321
10:22:46,30-Sep-21,1.1145,1.112,1.24211025,1.236544
10:22:46,30-Sep-21,1.1145,1.112,1.24211025,1.236544
10:22:46,30-Sep-21,1.1145,1.113,1.24211025,1.238769
10:22:46,30-Sep-21,1.1145,1.114,1.24211025,1.240996
10:22:46,30-Sep-21,1.1045,1.115,1.21992025,1.243225
10:22:46,30-Sep-21,1.1045,1.115,1.21992025,1.243225
10:22:46,30-Sep-21,1.1045,1.116,1.21992025,1.245456
10:22:46,30-Sep-21,1.1045,1.117,1.21992025,1.247689
10:22:46,30-Sep-21,1.1045,1.117,1.21992025,1.247689
10:22:46,30-Sep-21,1.1095,1.118,1.23099025,1.249924
10:22:46,30-Sep-21,1.1095,1.118,1.23099025,1.249924
10:22:46,30-Sep-21,1.1095,1.119,1.23099025,1.252161
10:22:46,30-Sep-21,1.129,1.119,1.274641,1.252161
10:22:46,30-Sep-21,1.134,1.119,1.285956,1.252161
10:22:46,30-Sep-21,1.139,1.12,1.297321,1.2544
10:22:46,30-Sep-21,1.139,1.12,1.297321,1.2544
10:22:46,30-Sep-21,1.1435,1.12,1.30759225,1.2544
10:22:46,30-Sep-21,1.1435,1.12,1.30759225,1.2544
10:22:46,30-Sep-21,1.1435,1.12,1.30759225,1.2544
10:22:46,30-Sep-21,1.1435,1.12,1.30759225,1.2544
10:22:46,30-Sep-21,1.1435,1.12,1.30759225,1.2544
10:22:46,30-Sep-21,1.129,1.12,1.274641,1.2544
10:22:46,30-Sep-21,1.124,1.12,1.263376,1.2544
10:22:46,30-Sep-21,1.124,1.119,1.263376,1.252161
10:22:46,30-Sep-21,1.1095,1.119,1.23099025,1.252161
10:22:46,30-Sep-21,1.0995,1.119,1.20890025,1.252161
10:22:47,30-Sep-21,1.0995,1.119,1.20890025,1.252161
10:22:47,30-Sep-21,1.0995,1.119,1.20890025,1.252161
10:22:47,30-Sep-21,1.0995,1.118,1.20890025,1.249924
10:22:47,30-Sep-21,1.0995,1.118,1.20890025,1.249924
10:22:47,30-Sep-21,1.0995,1.118,1.20890025,1.249924
10:22:47,30-Sep-21,1.1045,1.118,1.21992025,1.249924
10:22:47,30-Sep-21,1.1045,1.118,1.21992025,1.249924
10:22:47,30-Sep-21,1.1195,1.119,1.25328025,1.252161
10:22:47,30-Sep-21,1.1195,1.119,1.25328025,1.252161
10:22:47,30-Sep-21,1.129,1.119,1.274641,1.252161
10:22:47,30-Sep-21,1.129,1.119,1.274641,1.252161
10:22:47,30-Sep-21,1.129,1.12,1.274641,1.2544
10:22:47,30-Sep-21,1.124,1.12,1.263376,1.2544
10:22:47,30-Sep-21,1.124,1.121,1.263376,1.256641
10:22:47,30-Sep-21,1.124,1.121,1.263376,1.256641
10:22:47,30-Sep-21,1.1145,1.122,1.24211025,1.258884
10:22:47,30-Sep-21,1.1145,1.123,1.24211025,1.261129
10:22:47,30-Sep-21,1.1145,1.124,1.24211025,1.263376
10:22:47,30-Sep-21,1.1145,1.124,1.24211025,1.263376
10:22:47,30-Sep-21,1.1145,1.125,1.24211025,1.265625
10:22:47,30-Sep-21,1.1195,1.126,1.25328025,1.267876
10:22:47,30-Sep-21,1.1195,1.127,1.25328025,1.270129
10:22:47,30-Sep-21,1.1195,1.128,1.25328025,1.272384
10:22:47,30-Sep-21,1.1435,1.129,1.30759225,1.274641
10:22:47,30-Sep-21,1.1485,1.13,1.31905225,1.2769
10:22:47,30-Sep-21,1.1535,1.131,1.33056225,1.279161
10:22:47,30-Sep-21,1.1535,1.132,1.33056225,1.281424
10:22:47,30-Sep-21,1.1535,1.133,1.33056225,1.283689
10:22:47,30-Sep-21,1.1435,1.134,1.30759225,1.285956
10:22:47,30-Sep-21,1.1435,1.135,1.30759225,1.288225
10:22:47,30-Sep-21,1.139,1.135,1.297321,1.288225
10:22:47,30-Sep-21,1.139,1.136,1.297321,1.290496
10:22:47,30-Sep-21,1.124,1.137,1.263376,1.292769
10:22:47,30-Sep-21,1.124,1.137,1.263376,1.292769
10:22:47,30-Sep-21,1.1195,1.138,1.25328025,1.295044
10:22:47,30-Sep-21,1.1195,1.138,1.25328025,1.295044
10:22:47,30-Sep-21,1.1145,1.139,1.24211025,1.297321
10:22:47,30-Sep-21,1.1145,1.139,1.24211025,1.297321
10:22:47,30-Sep-21,1.124,1.139,1.263376,1.297321
10:22:47,30-Sep-21,1.124,1.139,1.263376,1.297321
10:22:47,30-Sep-21,1.134,1.139,1.285956,1.297321
10:22:47,30-Sep-21,1.134,1.139,1.285956,1.297321
10:22:47,30-Sep-21,1.134,1.139,1.285956,1.297321
10:22:47,30-Sep-21,1.1585,1.139,1.34212225,1.297321
10:22:47,30-Sep-21,1.1585,1.138,1.34212225,1.295044
10:22:47,30-Sep-21,1.1535,1.137,1.33056225,1.292769
10:22:47,30-Sep-21,1.1535,1.136,1.33056225,1.290496
10:22:47,30-Sep-21,1.1535,1.135,1.33056225,1.288225
10:22:47,30-Sep-21,1.1535,1.134,1.33056225,1.285956
10:22:47,30-Sep-21,1.1435,1.132,1.30759225,1.281424
10:22:47,30-Sep-21,1.1435,1.13,1.30759225,1.2769
10:22:47,30-Sep-21,1.134,1.129,1.285956,1.274641
10:22:47,30-Sep-21,1.124,1.126,1.263376,1.267876
10:22:47,30-Sep-21,1.1095,1.124,1.23099025,1.263376
10:22:47,30-Sep-21,1.1095,1.122,1.23099025,1.258884
10:22:47,30-Sep-21,1.1045,1.119,1.21992025,1.252161
10:22:47,30-Sep-21,1.1195,1.116,1.25328025,1.245456
10:22:47,30-Sep-21,1.1195,1.114,1.25328025,1.240996
10:22:47,30-Sep-21,1.124,1.111,1.263376,1.234321
10:22:47,30-Sep-21,1.124,1.107,1.263376,1.225449
10:22:47,30-Sep-21,1.124,1.104,1.263376,1.218816
10:22:47,30-Sep-21,1.1195,1.101,1.25328025,1.212201
10:22:47,30-Sep-21,1.0995,1.097,1.20890025,1.203409
10:22:47,30-Sep-21,1.0995,1.094,1.20890025,1.196836
10:22:47,30-Sep-21,1.0995,1.09,1.20890025,1.1881
10:22:47,30-Sep-21,1.0755,1.087,1.15670025,1.181569
10:22:47,30-Sep-21,1.0755,1.083,1.15670025,1.172889
10:22:47,30-Sep-21,1.0555,1.08,1.11408025,1.1664
10:22:47,30-Sep-21,1.0555,1.076,1.11408025,1.157776
10:22:47,30-Sep-21,1.046,1.073,1.094116,1.151329
10:22:47,30-Sep-21,1.051,1.069,1.104601,1.142761
10:22:47,30-Sep-21,1.051,1.066,1.104601,1.136356
10:22:47,30-Sep-21,1.0555,1.063,1.11408025,1.129969
10:22:47,30-Sep-21,1.0555,1.06,1.11408025,1.1236
10:22:47,30-Sep-21,1.0705,1.057,1.14597025,1.117249
10:22:47,30-Sep-21,1.0705,1.054,1.14597025,1.110916
10:22:47,30-Sep-21,1.0655,1.051,1.13529025,1.104601
10:22:47,30-Sep-21,1.0655,1.048,1.13529025,1.098304
10:22:47,30-Sep-21,1.0605,1.045,1.12466025,1.092025
10:22:47,30-Sep-21,1.0605,1.043,1.12466025,1.087849
10:22:47,30-Sep-21,1.041,1.041,1.083681,1.083681
10:22:47,30-Sep-21,1.0315,1.039,1.06399225,1.079521
10:22:47,30-Sep-21,1.0215,1.036,1.04346225,1.073296
10:22:47,30-Sep-21,1.0215,1.035,1.04346225,1.071225
10:22:47,30-Sep-21,1.007,1.033,1.014049,1.067089
10:22:47,30-Sep-21,1.007,1.031,1.014049,1.062961
10:22:47,30-Sep-21,1.007,1.03,1.014049,1.0609
10:22:48,30-Sep-21,1.007,1.029,1.014049,1.058841
10:22:48,30-Sep-21,1.0265,1.028,1.05370225,1.056784
10:22:48,30-Sep-21,1.036,1.027,1.073296,1.054729
10:22:48,30-Sep-21,1.036,1.026,1.073296,1.052676
10:22:48,30-Sep-21,1.046,1.025,1.094116,1.050625
10:22:48,30-Sep-21,1.046,1.025,1.094116,1.050625
10:22:48,30-Sep-21,1.046,1.024,1.094116,1.048576
10:22:48,30-Sep-21,1.041,1.024,1.083681,1.048576
10:22:48,30-Sep-21,1.041,1.024,1.083681,1.048576
10:22:48,30-Sep-21,1.0315,1.024,1.06399225,1.048576
10:22:48,30-Sep-21,1.0215,1.024,1.04346225,1.048576
10:22:48,30-Sep-21,1.0215,1.024,1.04346225,1.048576
10:22:48,30-Sep-21,1.0165,1.024,1.03327225,1.048576
10:22:48,30-Sep-21,1.0165,1.024,1.03327225,1.048576
10:22:48,30-Sep-21,1.002,1.024,1.004004,1.048576
10:22:48,30-Sep-21,1.002,1.025,1.004004,1.050625
10:22:48,30-Sep-21,1.002,1.025,1.004004,1.050625
10:22:48,30-Sep-21,1.002,1.025,1.004004,1.050625
10:22:48,30-Sep-21,1.007,1.026,1.014049,1.052676
10:22:48,30-Sep-21,1.007,1.026,1.014049,1.052676
10:22:48,30-Sep-21,1.0165,1.027,1.03327225,1.054729
10:22:48,30-Sep-21,1.041,1.027,1.083681,1.054729
10:22:48,30-Sep-21,1.041,1.028,1.083681,1.056784
10:22:48,30-Sep-21,1.051,1.028,1.104601,1.056784
10:22:48,30-Sep-21,1.051,1.028,1.104601,1.056784
10:22:48,30-Sep-21,1.051,1.029,1.104601,1.058841
10:22:48,30-Sep-21,1.051,1.029,1.104601,1.058841
10:22:48,30-Sep-21,1.046,1.029,1.094116,1.058841
10:22:48,30-Sep-21,1.046,1.029,1.094116,1.058841
10:22:48,30-Sep-21,1.041,1.029,1.083681,1.058841
10:22:48,30-Sep-21,1.041,1.029,1.083681,1.058841
10:22:48,30-Sep-21,1.041,1.029,1.083681,1.058841
10:22:48,30-Sep-21,1.0215,1.028,1.04346225,1.056784
10:22:48,30-Sep-21,1.0115,1.028,1.02313225,1.056784
10:22:48,30-Sep-21,1.0115,1.028,1.02313225,1.056784
10:22:48,30-Sep-21,1.002,1.027,1.004004,1.054729
10:22:48,30-Sep-21,1.002,1.027,1.004004,1.054729
10:22:48,30-Sep-21,1.002,1.026,1.004004,1.052676
10:22:48,30-Sep-21,1.0215,1.025,1.04346225,1.050625
10:22:48,30-Sep-21,1.0215,1.025,1.04346225,1.050625
10:22:48,30-Sep-21,1.0315,1.024,1.06399225,1.048576
10:22:48,30-Sep-21,1.0315,1.023,1.06399225,1.046529
10:22:48,30-Sep-21,1.0315,1.022,1.06399225,1.044484
10:22:48,30-Sep-21,1.041,1.021,1.083681,1.042441
10:22:48,30-Sep-21,1.036,1.02,1.073296,1.0404
10:22:48,30-Sep-21,1.036,1.019,1.073296,1.038361
10:22:48,30-Sep-21,1.0315,1.018,1.06399225,1.036324
10:22:48,30-Sep-21,1.0315,1.017,1.06399225,1.034289
10:22:48,30-Sep-21,1.0165,1.017,1.03327225,1.034289
10:22:48,30-Sep-21,1.0165,1.016,1.03327225,1.032256
10:22:48,30-Sep-21,1.0115,1.015,1.02313225,1.030225
10:22:48,30-Sep-21,1.0115,1.014,1.02313225,1.028196
10:22:48,30-Sep-21,0.997,1.013,0.994009,1.026169
10:22:48,30-Sep-21,0.992,1.012,0.984064,1.024144
10:22:48,30-Sep-21,0.992,1.012,0.984064,1.024144
10:22:48,30-Sep-21,0.997,1.011,0.994009,1.022121
10:22:48,30-Sep-21,1.002,1.01,1.004004,1.0201
10:22:48,30-Sep-21,1.002,1.01,1.004004,1.0201
10:22:48,30-Sep-21,1.002,1.01,1.004004,1.0201
10:22:48,30-Sep-21,1.0265,1.01,1.05370225,1.0201
10:22:48,30-Sep-21,1.0265,1.01,1.05370225,1.0201
10:22:48,30-Sep-21,1.0315,1.01,1.06399225,1.0201
10:22:48,30-Sep-21,1.0315,1.01,1.06399225,1.0201
10:22:48,30-Sep-21,1.0265,1.01,1.05370225,1.0201
10:22:48,30-Sep-21,1.0265,1.011,1.05370225,1.022121
10:22:48,30-Sep-21,1.0265,1.011,1.05370225,1.022121
10:22:48,30-Sep-21,1.002,1.012,1.004004,1.024144
10:22:48,30-Sep-21,1.002,1.013,1.004004,1.026169
10:22:48,30-Sep-21,0.992,1.014,0.984064,1.028196
10:22:48,30-Sep-21,0.992,1.016,0.984064,1.032256
10:22:48,30-Sep-21,0.992,1.017,0.984064,1.034289
10:22:48,30-Sep-21,0.992,1.019,0.984064,1.038361
10:22:48,30-Sep-21,1.007,1.021,1.014049,1.042441
10:22:48,30-Sep-21,1.0115,1.022,1.02313225,1.044484
10:22:48,30-Sep-21,1.0165,1.025,1.03327225,1.050625
10:22:48,30-Sep-21,1.0165,1.027,1.03327225,1.054729
10:22:48,30-Sep-21,1.041,1.029,1.083681,1.058841
10:22:48,30-Sep-21,1.041,1.032,1.083681,1.065024
10:22:48,30-Sep-21,1.041,1.034,1.083681,1.069156
10:22:48,30-Sep-21,1.051,1.037,1.104601,1.075369
10:22:48,30-Sep-21,1.046,1.04,1.094116,1.0816
10:22:48,30-Sep-21,1.046,1.042,1.094116,1.085764
10:22:48,30-Sep-21,1.051,1.045,1.104601,1.092025
10:22:48,30-Sep-21,1.051,1.048,1.104601,1.098304
10:22:48,30-Sep-21,1.046,1.051,1.094116,1.104601
10:22:48,30-Sep-21,1.046,1.054,1.094116,1.110916
10:22:48,30-Sep-21,1.046,1.057,1.094116,1.117249
10:22:48,30-Sep-21,1.051,1.059,1.104601,1.121481
10:22:48,30-Sep-21,1.051,1.062,1.104601,1.127844
10:22:48,30-Sep-21,1.051,1.065,1.104601,1.134225
10:22:48,30-Sep-21,1.0605,1.068,1.12466025,1.140624
10:22:48,30-Sep-21,1.0605,1.07,1.12466025,1.1449
10:22:48,30-Sep-21,1.0755,1.073,1.15670025,1.151329
10:22:48,30-Sep-21,1.0995,1.075,1.20890025,1.155625
10:22:48,30-Sep-21,1.0995,1.078,1.20890025,1.162084
10:22:49,30-Sep-21,1.0995,1.08,1.20890025,1.1664
10:22:49,30-Sep-21,1.1045,1.082,1.21992025,1.170724
10:22:49,30-Sep-21,1.1045,1.084,1.21992025,1.175056
10:22:49,30-Sep-21,1.1045,1.086,1.21992025,1.179396
10:22:49,30-Sep-21,1.1045,1.087,1.21992025,1.181569
10:22:49,30-Sep-21,1.1045,1.089,1.21992025,1.185921
10:22:49,30-Sep-21,1.095,1.09,1.199025,1.1881
10:22:49,30-Sep-21,1.095,1.092,1.199025,1.192464
10:22:49,30-Sep-21,1.095,1.093,1.199025,1.194649
10:22:49,30-Sep-21,1.095,1.094,1.199025,1.196836
10:22:49,30-Sep-21,1.095,1.095,1.199025,1.199025
10:22:49,30-Sep-21,1.095,1.096,1.199025,1.201216
10:22:49,30-Sep-21,1.095,1.097,1.199025,1.203409
10:22:49,30-Sep-21,1.085,1.098,1.177225,1.205604
10:22:49,30-Sep-21,1.085,1.099,1.177225,1.207801
10:22:49,30-Sep-21,1.085,1.1,1.177225,1.21
10:22:49,30-Sep-21,1.085,1.101,1.177225,1.212201
10:22:49,30-Sep-21,1.085,1.102,1.177225,1.214404
10:22:49,30-Sep-21,1.09,1.103,1.1881,1.216609
10:22:49,30-Sep-21,1.09,1.104,1.1881,1.218816
10:22:49,30-Sep-21,1.1095,1.105,1.23099025,1.221025
10:22:49,30-Sep-21,1.1095,1.106,1.23099025,1.223236
10:22:49,30-Sep-21,1.1145,1.107,1.24211025,1.225449
10:22:49,30-Sep-21,1.1145,1.108,1.24211025,1.227664
10:22:49,30-Sep-21,1.124,1.109,1.263376,1.229881
10:22:49,30-Sep-21,1.124,1.11,1.263376,1.2321
10:22:49,30-Sep-21,1.124,1.111,1.263376,1.234321
10:22:49,30-Sep-21,1.124,1.112,1.263376,1.236544
10:22:49,30-Sep-21,1.1145,1.114,1.24211025,1.240996
10:22:49,30-Sep-21,1.1095,1.115,1.23099025,1.243225
10:22:49,30-Sep-21,1.095,1.116,1.199025,1.245456
10:22:49,30-Sep-21,1.095,1.118,1.199025,1.249924
10:22:49,30-Sep-21,1.09,1.119,1.1881,1.252161
10:22:49,30-Sep-21,1.09,1.12,1.1881,1.2544
10:22:49,30-Sep-21,1.09,1.122,1.1881,1.258884
10:22:49,30-Sep-21,1.095,1.123,1.199025,1.261129
10:22:49,30-Sep-21,1.1045,1.124,1.21992025,1.263376
10:22:49,30-Sep-21,1.134,1.126,1.285956,1.267876
10:22:49,30-Sep-21,1.134,1.127,1.285956,1.270129
10:22:49,30-Sep-21,1.139,1.128,1.297321,1.272384
10:22:49,30-Sep-21,1.139,1.129,1.297321,1.274641
10:22:49,30-Sep-21,1.139,1.13,1.297321,1.2769
10:22:49,30-Sep-21,1.139,1.131,1.297321,1.279161
10:22:49,30-Sep-21,1.139,1.131,1.297321,1.279161
10:22:49,30-Sep-21,1.1435,1.132,1.30759225,1.281424
10:22:49,30-Sep-21,1.1435,1.132,1.30759225,1.281424
10:22:49,30-Sep-21,1.1435,1.132,1.30759225,1.281424
10:22:49,30-Sep-21,1.134,1.132,1.285956,1.281424
10:22:49,30-Sep-21,1.134,1.131,1.285956,1.279161
10:22:49,30-Sep-21,1.134,1.13,1.285956,1.2769
10:22:49,30-Sep-21,1.134,1.129,1.285956,1.274641
10:22:49,30-Sep-21,1.134,1.128,1.285956,1.272384
10:22:49,30-Sep-21,1.129,1.127,1.274641,1.270129
10:22:49,30-Sep-21,1.129,1.125,1.274641,1.265625
10:22:49,30-Sep-21,1.124,1.123,1.263376,1.261129
10:22:49,30-Sep-21,1.124,1.121,1.263376,1.256641
10:22:49,30-Sep-21,1.1145,1.118,1.24211025,1.249924
10:22:49,30-Sep-21,1.1145,1.115,1.24211025,1.243225
10:22:49,30-Sep-21,1.124,1.113,1.263376,1.238769
10:22:49,30-Sep-21,1.124,1.109,1.263376,1.229881
10:22:49,30-Sep-21,1.124,1.106,1.263376,1.223236
10:22:49,30-Sep-21,1.124,1.102,1.263376,1.214404
10:22:49,30-Sep-21,1.124,1.099,1.263376,1.207801
10:22:49,30-Sep-21,1.129,1.095,1.274641,1.199025
10:22:49,30-Sep-21,1.1145,1.091,1.24211025,1.190281
10:22:49,30-Sep-21,1.0995,1.087,1.20890025,1.181569
10:22:49,30-Sep-21,1.0995,1.083,1.20890025,1.172889
10:22:49,30-Sep-21,1.0995,1.079,1.20890025,1.164241
10:22:49,30-Sep-21,1.08,1.075,1.1664,1.155625
10:22:49,30-Sep-21,1.0605,1.071,1.12466025,1.147041
10:22:49,30-Sep-21,1.0605,1.067,1.12466025,1.138489
10:22:49,30-Sep-21,1.036,1.064,1.073296,1.132096
10:22:49,30-Sep-21,1.0215,1.06,1.04346225,1.1236
10:22:49,30-Sep-21,1.0215,1.057,1.04346225,1.117249
10:22:49,30-Sep-21,1.0115,1.054,1.02313225,1.110916
10:22:49,30-Sep-21,1.0115,1.051,1.02313225,1.104601
10:22:49,30-Sep-21,1.0115,1.048,1.02313225,1.098304
10:22:49,30-Sep-21,1.0115,1.045,1.02313225,1.092025
10:22:49,30-Sep-21,1.036,1.043,1.073296,1.087849
10:22:49,30-Sep-21,1.036,1.041,1.073296,1.083681
10:22:49,30-Sep-21,1.036,1.039,1.073296,1.079521
10:22:49,30-Sep-21,1.041,1.038,1.083681,1.077444
10:22:49,30-Sep-21,1.041,1.037,1.083681,1.075369
10:22:49,30-Sep-21,1.041,1.036,1.083681,1.073296
10:22:49,30-Sep-21,1.041,1.035,1.083681,1.071225
10:22:49,30-Sep-21,1.041,1.034,1.083681,1.069156
10:22:49,30-Sep-21,1.041,1.034,1.083681,1.069156
10:22:49,30-Sep-21,1.0315,1.034,1.06399225,1.069156
10:22:49,30-Sep-21,1.0315,1.034,1.06399225,1.069156
10:22:49,30-Sep-21,1.0315,1.034,1.06399225,1.069156
10:22:49,30-Sep-21,1.0215,1.035,1.04346225,1.071225
10:22:49,30-Sep-21,1.0215,1.035,1.04346225,1.071225
10:22:49,30-Sep-21,1.0215,1.036,1.04346225,1.073296
10:22:49,30-Sep-21,1.0265,1.037,1.05370225,1.075369
10:22:49,30-Sep-21,1.041,1.038,1.083681,1.077444
10:22:49,30-Sep-21,1.041,1.039,1.083681,1.079521
10:22:49,30-Sep-21,1.051,1.04,1.104601,1.0816
10:22:49,30-Sep-21,1.0705,1.041,1.14597025,1.083681
10:22:49,30-Sep-21,1.0705,1.042,1.14597025,1.085764
10:22:49,30-Sep-21,1.0705,1.043,1.14597025,1.087849
10:22:49,30-Sep-21,1.0705,1.044,1.14597025,1.089936
10:22:50,30-Sep-21,1.0705,1.045,1.14597025,1.092025
10:22:50,30-Sep-21,1.0705,1.047,1.14597025,1.096209
10:22:50,30-Sep-21,1.0605,1.048,1.12466025,1.098304
10:22:50,30-Sep-21,1.0605,1.049,1.12466025,1.100401
10:22:50,30-Sep-21,1.046,1.051,1.094116,1.104601
10:22:50,30-Sep-21,1.046,1.052,1.094116,1.106704
10:22:50,30-Sep-21,1.046,1.053,1.094116,1.108809
10:22:50,30-Sep-21,1.046,1.055,1.094116,1.113025
10:22:50,30-Sep-21,1.0555,1.057,1.11408025,1.117249
10:22:50,30-Sep-21,1.0555,1.058,1.11408025,1.119364
10:22:50,30-Sep-21,1.08,1.06,1.1664,1.1236
10:22:50,30-Sep-21,1.09,1.062,1.1881,1.127844
10:22:50,30-Sep-21,1.09,1.065,1.1881,1.134225
10:22:50,30-Sep-21,1.095,1.067,1.199025,1.138489
10:22:50,30-Sep-21,1.095,1.07,1.199025,1.1449
10:22:50,30-Sep-21,1.09,1.073,1.1881,1.151329
10:22:50,30-Sep-21,1.0755,1.076,1.15670025,1.157776
10:22:50,30-Sep-21,1.0705,1.079,1.14597025,1.164241
10:22:50,30-Sep-21,1.0705,1.083,1.14597025,1.172889
10:22:50,30-Sep-21,1.0605,1.087,1.12466025,1.181569
10:22:50,30-Sep-21,1.0605,1.092,1.12466025,1.192464
10:22:50,30-Sep-21,1.0605,1.096,1.12466025,1.201216
10:22:50,30-Sep-21,1.0755,1.102,1.15670025,1.214404
10:22:50,30-Sep-21,1.0755,1.107,1.15670025,1.225449
10:22:50,30-Sep-21,1.095,1.113,1.199025,1.238769
10:22:50,30-Sep-21,1.095,1.119,1.199025,1.252161
10:22:50,30-Sep-21,1.095,1.126,1.199025,1.267876
10:22:50,30-Sep-21,1.1195,1.132,1.25328025,1.281424
10:22:50,30-Sep-21,1.129,1.139,1.274641,1.297321
10:22:50,30-Sep-21,1.129,1.147,1.274641,1.315609
10:22:50,30-Sep-21,1.1435,1.154,1.30759225,1.331716
10:22:50,30-Sep-21,1.1485,1.162,1.31905225,1.350244
10:22:50,30-Sep-21,1.1485,1.17,1.31905225,1.3689
10:22:50,30-Sep-21,1.163,1.178,1.352569,1.387684
10:22:50,30-Sep-21,1.163,1.186,1.352569,1.406596
10:22:50,30-Sep-21,1.163,1.193,1.352569,1.423249
10:22:50,30-Sep-21,1.178,1.201,1.387684,1.442401
10:22:50,30-Sep-21,1.1875,1.209,1.41015625,1.461681
10:22:50,30-Sep-21,1.207,1.217,1.456849,1.481089
10:22:50,30-Sep-21,1.251,1.224,1.565001,1.498176
10:22:50,30-Sep-21,1.251,1.231,1.565001,1.515361
10:22:50,30-Sep-21,1.271,1.238,1.615441,1.532644
10:22:50,30-Sep-21,1.2805,1.244,1.63968025,1.547536
10:22:50,30-Sep-21,1.2855,1.25,1.65251025,1.5625
10:22:50,30-Sep-21,1.2905,1.255,1.66539025,1.575025
10:22:50,30-Sep-21,1.2805,1.26,1.63968025,1.5876
10:22:50,30-Sep-21,1.2755,1.264,1.62690025,1.597696
10:22:50,30-Sep-21,1.266,1.268,1.602756,1.607824
10:22:50,30-Sep-21,1.266,1.271,1.602756,1.615441
10:22:50,30-Sep-21,1.266,1.274,1.602756,1.623076
10:22:50,30-Sep-21,1.2805,1.275,1.63968025,1.625625
10:22:50,30-Sep-21,1.2805,1.277,1.63968025,1.630729
10:22:50,30-Sep-21,1.305,1.277,1.703025,1.630729
10:22:50,30-Sep-21,1.3245,1.277,1.75430025,1.630729
10:22:50,30-Sep-21,1.3195,1.276,1.74108025,1.628176
10:22:50,30-Sep-21,1.3195,1.274,1.74108025,1.623076
10:22:50,30-Sep-21,1.31,1.272,1.7161,1.617984
10:22:50,30-Sep-21,1.3,1.269,1.69,1.610361
10:22:50,30-Sep-21,1.2805,1.266,1.63968025,1.602756
10:22:50,30-Sep-21,1.266,1.262,1.602756,1.592644
10:22:50,30-Sep-21,1.251,1.258,1.565001,1.582564
10:22:50,30-Sep-21,1.251,1.253,1.565001,1.570009
10:22:50,30-Sep-21,1.2415,1.248,1.54132225,1.557504
10:22:50,30-Sep-21,1.227,1.242,1.505529,1.542564
10:22:50,30-Sep-21,1.2315,1.236,1.51659225,1.527696
10:22:50,30-Sep-21,1.2315,1.23,1.51659225,1.5129
10:22:50,30-Sep-21,1.2315,1.223,1.51659225,1.495729
10:22:50,30-Sep-21,1.207,1.217,1.456849,1.481089
10:22:50,30-Sep-21,1.207,1.21,1.456849,1.4641
10:22:50,30-Sep-21,1.1925,1.204,1.42205625,1.449616
10:22:51,30-Sep-21,1.168,1.197,1.364224,1.432809
10:22:51,30-Sep-21,1.1585,1.19,1.34212225,1.4161
10:22:51,30-Sep-21,1.1585,1.183,1.34212225,1.399489
10:22:51,30-Sep-21,1.129,1.177,1.274641,1.385329
10:22:51,30-Sep-21,1.129,1.171,1.274641,1.371241
10:22:51,30-Sep-21,1.129,1.164,1.274641,1.354896
10:22:51,30-Sep-21,1.139,1.158,1.297321,1.340964
10:22:51,30-Sep-21,1.1435,1.153,1.30759225,1.329409
10:22:51,30-Sep-21,1.1435,1.147,1.30759225,1.315609
10:22:51,30-Sep-21,1.1535,1.142,1.33056225,1.304164
10:22:51,30-Sep-21,1.1535,1.137,1.33056225,1.292769
10:22:51,30-Sep-21,1.1435,1.132,1.30759225,1.281424
10:22:51,30-Sep-21,1.139,1.127,1.297321,1.270129
10:22:51,30-Sep-21,1.1145,1.123,1.24211025,1.261129
10:22:51,30-Sep-21,1.1145,1.119,1.24211025,1.252161
10:22:51,30-Sep-21,1.1045,1.115,1.21992025,1.243225
10:22:51,30-Sep-21,1.0995,1.112,1.20890025,1.236544
10:22:51,30-Sep-21,1.095,1.109,1.199025,1.229881
10:22:51,30-Sep-21,1.09,1.106,1.1881,1.223236
10:22:51,30-Sep-21,1.09,1.103,1.1881,1.216609
10:22:51,30-Sep-21,1.1095,1.101,1.23099025,1.212201
10:22:51,30-Sep-21,1.1095,1.099,1.23099025,1.207801
10:22:51,30-Sep-21,1.1095,1.097,1.23099025,1.203409
10:22:51,30-Sep-21,1.1095,1.095,1.23099025,1.199025
10:22:51,30-Sep-21,1.1145,1.093,1.24211025,1.194649
10:22:51,30-Sep-21,1.1095,1.092,1.23099025,1.192464
10:22:51,30-Sep-21,1.1095,1.09,1.23099025,1.1881
10:22:51,30-Sep-21,1.0995,1.089,1.20890025,1.185921
10:22:51,30-Sep-21,1.0995,1.088,1.20890025,1.183744
10:22:51,30-Sep-21,1.095,1.087,1.199025,1.181569
10:22:51,30-Sep-21,1.095,1.086,1.199025,1.179396
10:22:51,30-Sep-21,1.085,1.085,1.177225,1.177225
10:22:51,30-Sep-21,1.0755,1.085,1.15670025,1.177225
10:22:51,30-Sep-21,1.0755,1.084,1.15670025,1.175056
10:22:51,30-Sep-21,1.0705,1.084,1.14597025,1.175056
10:22:51,30-Sep-21,1.0705,1.083,1.14597025,1.172889
10:22:51,30-Sep-21,1.0705,1.083,1.14597025,1.172889
10:22:51,30-Sep-21,1.08,1.083,1.1664,1.172889
10:22:51,30-Sep-21,1.09,1.083,1.1881,1.172889
10:22:51,30-Sep-21,1.1045,1.082,1.21992025,1.170724
10:22:51,30-Sep-21,1.1045,1.082,1.21992025,1.170724
10:22:51,30-Sep-21,1.0995,1.082,1.20890025,1.170724
10:22:51,30-Sep-21,1.095,1.082,1.199025,1.170724
10:22:51,30-Sep-21,1.095,1.083,1.199025,1.172889
10:22:51,30-Sep-21,1.085,1.083,1.177225,1.172889
10:22:51,30-Sep-21,1.0705,1.083,1.14597025,1.172889
10:22:51,30-Sep-21,1.0655,1.083,1.13529025,1.172889
10:22:51,30-Sep-21,1.0655,1.084,1.13529025,1.175056
10:22:51,30-Sep-21,1.0655,1.084,1.13529025,1.175056
10:22:51,30-Sep-21,1.0605,1.085,1.12466025,1.177225
10:22:51,30-Sep-21,1.09,1.085,1.1881,1.177225
10:22:51,30-Sep-21,1.09,1.086,1.1881,1.179396
10:22:51,30-Sep-21,1.095,1.087,1.199025,1.181569
10:22:51,30-Sep-21,1.1045,1.087,1.21992025,1.181569
10:22:51,30-Sep-21,1.0995,1.088,1.20890025,1.183744
10:22:51,30-Sep-21,1.0995,1.089,1.20890025,1.185921
10:22:51,30-Sep-21,1.0995,1.09,1.20890025,1.1881
10:22:51,30-Sep-21,1.085,1.091,1.177225,1.190281
10:22:51,30-Sep-21,1.085,1.092,1.177225,1.192464
10:22:51,30-Sep-21,1.085,1.093,1.177225,1.194649
10:22:51,30-Sep-21,1.0705,1.095,1.14597025,1.199025
10:22:51,30-Sep-21,1.0755,1.096,1.15670025,1.201216
10:22:51,30-Sep-21,1.085,1.097,1.177225,1.203409
10:22:51,30-Sep-21,1.095,1.098,1.199025,1.205604
10:22:51,30-Sep-21,1.095,1.1,1.199025,1.21
10:22:51,30-Sep-21,1.095,1.101,1.199025,1.212201
10:22:51,30-Sep-21,1.1195,1.103,1.25328025,1.216609
10:22:51,30-Sep-21,1.1195,1.104,1.25328025,1.218816
10:22:51,30-Sep-21,1.124,1.106,1.263376,1.223236
10:22:51,30-Sep-21,1.1195,1.107,1.25328025,1.225449
10:22:51,30-Sep-21,1.1195,1.109,1.25328025,1.229881
10:22:51,30-Sep-21,1.1195,1.11,1.25328025,1.2321
10:22:51,30-Sep-21,1.1045,1.112,1.21992025,1.236544
10:22:51,30-Sep-21,1.1045,1.113,1.21992025,1.238769
10:22:51,30-Sep-21,1.1045,1.115,1.21992025,1.243225
10:22:52,30-Sep-21,1.1045,1.116,1.21992025,1.245456
10:22:52,30-Sep-21,1.0995,1.117,1.20890025,1.247689
10:22:52,30-Sep-21,1.0995,1.119,1.20890025,1.252161
10:22:52,30-Sep-21,1.1045,1.12,1.21992025,1.2544
10:22:52,30-Sep-21,1.129,1.121,1.274641,1.256641
10:22:52,30-Sep-21,1.129,1.122,1.274641,1.258884
10:22:52,30-Sep-21,1.129,1.123,1.274641,1.261129
10:22:52,30-Sep-21,1.129,1.124,1.274641,1.263376
10:22:52,30-Sep-21,1.139,1.125,1.297321,1.265625
10:22:52,30-Sep-21,1.139,1.126,1.297321,1.267876
10:22:52,30-Sep-21,1.1435,1.127,1.30759225,1.270129
10:22:52,30-Sep-21,1.139,1.128,1.297321,1.272384
10:22:52,30-Sep-21,1.139,1.128,1.297321,1.272384
10:22:52,30-Sep-21,1.139,1.129,1.297321,1.274641
10:22:52,30-Sep-21,1.129,1.129,1.274641,1.274641
10:22:52,30-Sep-21,1.129,1.129,1.274641,1.274641
10:22:52,30-Sep-21,1.124,1.129,1.263376,1.274641
10:22:52,30-Sep-21,1.1145,1.129,1.24211025,1.274641
10:22:52,30-Sep-21,1.1145,1.129,1.24211025,1.274641
10:22:52,30-Sep-21,1.1145,1.129,1.24211025,1.274641
10:22:52,30-Sep-21,1.1145,1.129,1.24211025,1.274641
10:22:52,30-Sep-21,1.1195,1.129,1.25328025,1.274641
10:22:52,30-Sep-21,1.124,1.128,1.263376,1.272384
10:22:52,30-Sep-21,1.124,1.128,1.263376,1.272384
10:22:52,30-Sep-21,1.124,1.127,1.263376,1.270129
10:22:52,30-Sep-21,1.134,1.127,1.285956,1.270129
10:22:52,30-Sep-21,1.134,1.126,1.285956,1.267876
10:22:52,30-Sep-21,1.1435,1.125,1.30759225,1.265625
10:22:52,30-Sep-21,1.1435,1.124,1.30759225,1.263376
10:22:52,30-Sep-21,1.1435,1.123,1.30759225,1.261129
10:22:52,30-Sep-21,1.1435,1.122,1.30759225,1.258884
10:22:52,30-Sep-21,1.129,1.121,1.274641,1.256641
10:22:52,30-Sep-21,1.124,1.12,1.263376,1.2544
10:22:52,30-Sep-21,1.124,1.119,1.263376,1.252161
10:22:52,30-Sep-21,1.1045,1.118,1.21992025,1.249924
10:22:52,30-Sep-21,1.0995,1.116,1.20890025,1.245456
10:22:52,30-Sep-21,1.0995,1.115,1.20890025,1.243225
10:22:52,30-Sep-21,1.09,1.114,1.1881,1.240996
10:22:52,30-Sep-21,1.095,1.113,1.199025,1.238769
10:22:52,30-Sep-21,1.095,1.111,1.199025,1.234321
10:22:52,30-Sep-21,1.095,1.11,1.199025,1.2321
10:22:52,30-Sep-21,1.124,1.109,1.263376,1.229881
10:22:52,30-Sep-21,1.124,1.108,1.263376,1.227664
10:22:52,30-Sep-21,1.124,1.107,1.263376,1.225449
10:22:52,30-Sep-21,1.129,1.106,1.274641,1.223236
10:22:52,30-Sep-21,1.134,1.105,1.285956,1.221025
10:22:52,30-Sep-21,1.129,1.104,1.274641,1.218816
10:22:52,30-Sep-21,1.1195,1.103,1.25328025,1.216609
10:22:52,30-Sep-21,1.1195,1.103,1.25328025,1.216609
10:22:52,30-Sep-21,1.1045,1.102,1.21992025,1.214404
10:22:52,30-Sep-21,1.085,1.101,1.177225,1.212201
10:22:52,30-Sep-21,1.085,1.101,1.177225,1.212201
10:22:52,30-Sep-21,1.085,1.101,1.177225,1.212201
10:22:52,30-Sep-21,1.0755,1.101,1.15670025,1.212201
10:22:52,30-Sep-21,1.0755,1.101,1.15670025,1.212201
10:22:52,30-Sep-21,1.0755,1.101,1.15670025,1.212201
10:22:52,30-Sep-21,1.0755,1.101,1.15670025,1.212201
10:22:52,30-Sep-21,1.085,1.101,1.177225,1.212201
10:22:52,30-Sep-21,1.095,1.102,1.199025,1.214404
10:22:52,30-Sep-21,1.095,1.102,1.199025,1.214404
10:22:52,30-Sep-21,1.095,1.103,1.199025,1.216609
10:22:52,30-Sep-21,1.1145,1.103,1.24211025,1.216609
10:22:52,30-Sep-21,1.1145,1.104,1.24211025,1.218816
10:22:52,30-Sep-21,1.1145,1.105,1.24211025,1.221025
10:22:52,30-Sep-21,1.1095,1.106,1.23099025,1.223236
10:22:52,30-Sep-21,1.1095,1.106,1.23099025,1.223236
10:22:52,30-Sep-21,1.095,1.107,1.199025,1.225449
10:22:52,30-Sep-21,1.095,1.108,1.199025,1.227664
10:22:52,30-Sep-21,1.095,1.109,1.199025,1.229881
10:22:52,30-Sep-21,1.095,1.109,1.199025,1.229881
10:22:52,30-Sep-21,1.095,1.11,1.199025,1.2321
10:22:52,30-Sep-21,1.0995,1.111,1.20890025,1.234321
10:22:52,30-Sep-21,1.1045,1.111,1.21992025,1.234321
10:22:52,30-Sep-21,1.1045,1.111,1.21992025,1.234321
10:22:52,30-Sep-21,1.1045,1.111,1.21992025,1.234321
10:22:52,30-Sep-21,1.134,1.111,1.285956,1.234321
10:22:52,30-Sep-21,1.1435,1.111,1.30759225,1.234321
10:22:52,30-Sep-21,1.1435,1.111,1.30759225,1.234321
10:22:52,30-Sep-21,1.1485,1.11,1.31905225,1.2321
10:22:52,30-Sep-21,1.1485,1.109,1.31905225,1.229881
10:22:52,30-Sep-21,1.1485,1.108,1.31905225,1.227664
10:22:52,30-Sep-21,1.1485,1.107,1.31905225,1.225449
10:22:52,30-Sep-21,1.134,1.106,1.285956,1.223236
10:22:52,30-Sep-21,1.134,1.105,1.285956,1.221025
10:22:52,30-Sep-21,1.1195,1.103,1.25328025,1.216609
10:22:52,30-Sep-21,1.0995,1.102,1.20890025,1.214404
10:22:52,30-Sep-21,1.0995,1.1,1.20890025,1.21
10:22:52,30-Sep-21,1.085,1.098,1.177225,1.205604
10:22:52,30-Sep-21,1.085,1.096,1.177225,1.201216
10:22:52,30-Sep-21,1.0755,1.095,1.15670025,1.199025
10:22:53,30-Sep-21,1.0755,1.093,1.15670025,1.194649
10:22:53,30-Sep-21,1.0655,1.091,1.13529025,1.190281
10:22:53,30-Sep-21,1.0605,1.089,1.12466025,1.185921
10:22:53,30-Sep-21,1.0605,1.088,1.12466025,1.183744
10:22:53,30-Sep-21,1.0755,1.086,1.15670025,1.179396
10:22:53,30-Sep-21,1.0755,1.084,1.15670025,1.175056
10:22:53,30-Sep-21,1.0755,1.083,1.15670025,1.172889
10:22:53,30-Sep-21,1.0755,1.082,1.15670025,1.170724
10:22:53,30-Sep-21,1.0755,1.081,1.15670025,1.168561
10:22:53,30-Sep-21,1.0755,1.08,1.15670025,1.1664
10:22:53,30-Sep-21,1.0755,1.079,1.15670025,1.164241
10:22:53,30-Sep-21,1.0555,1.078,1.11408025,1.162084
10:22:53,30-Sep-21,1.0555,1.077,1.11408025,1.159929
10:22:53,30-Sep-21,1.0605,1.077,1.12466025,1.159929
10:22:53,30-Sep-21,1.0605,1.076,1.12466025,1.157776
10:22:53,30-Sep-21,1.0605,1.076,1.12466025,1.157776
10:22:53,30-Sep-21,1.0655,1.076,1.13529025,1.157776
10:22:53,30-Sep-21,1.0655,1.076,1.13529025,1.157776
10:22:53,30-Sep-21,1.0655,1.076,1.13529025,1.157776
10:22:53,30-Sep-21,1.0655,1.076,1.13529025,1.157776
10:22:53,30-Sep-21,1.09,1.076,1.1881,1.157776
10:22:53,30-Sep-21,1.09,1.076,1.1881,1.157776
10:22:53,30-Sep-21,1.0995,1.076,1.20890025,1.157776
10:22:53,30-Sep-21,1.0995,1.077,1.20890025,1.159929
10:22:53,30-Sep-21,1.0995,1.077,1.20890025,1.159929
10:22:53,30-Sep-21,1.1045,1.077,1.21992025,1.159929
10:22:53,30-Sep-21,1.1045,1.077,1.21992025,1.159929
10:22:53,30-Sep-21,1.1045,1.077,1.21992025,1.159929
10:22:53,30-Sep-21,1.09,1.077,1.1881,1.159929
10:22:53,30-Sep-21,1.085,1.077,1.177225,1.159929
10:22:53,30-Sep-21,1.085,1.077,1.177225,1.159929
10:22:53,30-Sep-21,1.085,1.076,1.177225,1.157776
10:22:53,30-Sep-21,1.0655,1.076,1.13529025,1.157776
10:22:53,30-Sep-21,1.0655,1.076,1.13529025,1.157776
10:22:53,30-Sep-21,1.0605,1.075,1.12466025,1.155625
10:22:53,30-Sep-21,1.0655,1.075,1.13529025,1.155625
10:22:53,30-Sep-21,1.0655,1.075,1.13529025,1.155625
10:22:53,30-Sep-21,1.0705,1.074,1.14597025,1.153476
10:22:53,30-Sep-21,1.0705,1.074,1.14597025,1.153476
10:22:53,30-Sep-21,1.09,1.073,1.1881,1.151329
10:22:53,30-Sep-21,1.09,1.072,1.1881,1.149184
10:22:53,30-Sep-21,1.085,1.072,1.177225,1.149184
10:22:53,30-Sep-21,1.08,1.071,1.1664,1.147041
10:22:53,30-Sep-21,1.08,1.071,1.1664,1.147041
10:22:53,30-Sep-21,1.08,1.07,1.1664,1.1449
10:22:53,30-Sep-21,1.0705,1.07,1.14597025,1.1449
10:22:53,30-Sep-21,1.0705,1.069,1.14597025,1.142761
10:22:53,30-Sep-21,1.051,1.068,1.104601,1.140624
10:22:53,30-Sep-21,1.046,1.068,1.094116,1.140624
10:22:53,30-Sep-21,1.046,1.067,1.094116,1.138489
10:22:53,30-Sep-21,1.036,1.067,1.073296,1.138489
10:22:53,30-Sep-21,1.036,1.067,1.073296,1.138489
10:22:53,30-Sep-21,1.036,1.066,1.073296,1.136356
10:22:53,30-Sep-21,1.036,1.066,1.073296,1.136356
10:22:53,30-Sep-21,1.0605,1.065,1.12466025,1.134225
10:22:53,30-Sep-21,1.0655,1.065,1.13529025,1.134225
10:22:53,30-Sep-21,1.0655,1.065,1.13529025,1.134225
10:22:53,30-Sep-21,1.0755,1.064,1.15670025,1.132096
10:22:53,30-Sep-21,1.0705,1.064,1.14597025,1.132096
10:22:53,30-Sep-21,1.0705,1.063,1.14597025,1.129969
10:22:53,30-Sep-21,1.0705,1.062,1.14597025,1.127844
10:22:53,30-Sep-21,1.0605,1.062,1.12466025,1.127844
10:22:53,30-Sep-21,1.0555,1.061,1.11408025,1.125721
10:22:53,30-Sep-21,1.046,1.06,1.094116,1.1236
10:22:53,30-Sep-21,1.046,1.059,1.094116,1.121481
10:22:53,30-Sep-21,1.041,1.058,1.083681,1.119364
10:22:53,30-Sep-21,1.046,1.056,1.094116,1.115136
10:22:53,30-Sep-21,1.051,1.055,1.104601,1.113025
10:22:53,30-Sep-21,1.051,1.053,1.104601,1.108809
10:22:53,30-Sep-21,1.0705,1.051,1.14597025,1.104601
10:22:53,30-Sep-21,1.0755,1.049,1.15670025,1.100401
10:22:53,30-Sep-21,1.0755,1.046,1.15670025,1.094116
10:22:53,30-Sep-21,1.0755,1.044,1.15670025,1.089936
10:22:53,30-Sep-21,1.0755,1.041,1.15670025,1.083681
10:22:53,30-Sep-21,1.0755,1.038,1.15670025,1.077444
10:22:53,30-Sep-21,1.0705,1.035,1.14597025,1.071225
10:22:53,30-Sep-21,1.0655,1.032,1.13529025,1.065024
10:22:53,30-Sep-21,1.0655,1.029,1.13529025,1.058841
10:22:53,30-Sep-21,1.046,1.025,1.094116,1.050625
10:22:53,30-Sep-21,1.046,1.022,1.094116,1.044484
10:22:53,30-Sep-21,1.0215,1.018,1.04346225,1.036324
10:22:53,30-Sep-21,1.0215,1.015,1.04346225,1.030225
10:22:53,30-Sep-21,1.002,1.011,1.004004,1.022121
10:22:53,30-Sep-21,0.997,1.008,0.994009,1.016064
10:22:53,30-Sep-21,0.997,1.005,0.994009,1.010025
10:22:54,30-Sep-21,0.9875,1.002,0.97515625,1.004004
10:22:54,30-Sep-21,0.9825,0.999,0.96530625,0.998001
10:22:54,30-Sep-21,0.9775,0.996,0.95550625,0.992016
10:22:54,30-Sep-21,0.9675,0.993,0.93605625,0.986049
10:22:54,30-Sep-21,0.958,0.991,0.917764,0.982081
10:22:54,30-Sep-21,0.948,0.989,0.898704,0.978121
10:22:54,30-Sep-21,0.9385,0.987,0.88078225,0.974169
10:22:54,30-Sep-21,0.9385,0.985,0.88078225,0.970225
10:22:54,30-Sep-21,0.9385,0.984,0.88078225,0.968256
10:22:54,30-Sep-21,0.948,0.983,0.898704,0.966289
10:22:54,30-Sep-21,0.963,0.982,0.927369,0.964324
10:22:54,30-Sep-21,0.963,0.982,0.927369,0.964324
10:22:54,30-Sep-21,0.9775,0.981,0.95550625,0.962361
10:22:54,30-Sep-21,1.002,0.982,1.004004,0.964324
10:22:54,30-Sep-21,1.002,0.982,1.004004,0.964324
10:22:54,30-Sep-21,1.0115,0.983,1.02313225,0.966289
10:22:54,30-Sep-21,1.0115,0.983,1.02313225,0.966289
10:22:54,30-Sep-21,1.0115,0.984,1.02313225,0.968256
10:22:54,30-Sep-21,1.002,0.986,1.004004,0.972196
10:22:54,30-Sep-21,1.002,0.987,1.004004,0.974169
10:22:54,30-Sep-21,1.002,0.989,1.004004,0.978121
10:22:54,30-Sep-21,0.997,0.99,0.994009,0.9801
10:22:54,30-Sep-21,0.992,0.992,0.984064,0.984064
10:22:54,30-Sep-21,0.992,0.994,0.984064,0.988036
10:22:54,30-Sep-21,0.992,0.996,0.984064,0.992016
10:22:54,30-Sep-21,0.992,0.998,0.984064,0.996004
10:22:54,30-Sep-21,0.992,1,0.984064,1
10:22:54,30-Sep-21,0.992,1.002,0.984064,1.004004
10:22:54,30-Sep-21,1.002,1.004,1.004004,1.008016
10:22:54,30-Sep-21,1.002,1.006,1.004004,1.012036
10:22:54,30-Sep-21,1.002,1.008,1.004004,1.016064
10:22:54,30-Sep-21,1.0265,1.01,1.05370225,1.0201
10:22:54,30-Sep-21,1.0265,1.012,1.05370225,1.024144
10:22:54,30-Sep-21,1.0315,1.015,1.06399225,1.030225
10:22:54,30-Sep-21,1.041,1.017,1.083681,1.034289
10:22:54,30-Sep-21,1.041,1.019,1.083681,1.038361
10:22:54,30-Sep-21,1.041,1.02,1.083681,1.0404
10:22:54,30-Sep-21,1.0265,1.022,1.05370225,1.044484
10:22:54,30-Sep-21,1.0215,1.024,1.04346225,1.048576
10:22:54,30-Sep-21,1.0215,1.026,1.04346225,1.052676
10:22:54,30-Sep-21,1.007,1.028,1.014049,1.056784
10:22:54,30-Sep-21,1.007,1.029,1.014049,1.058841
10:22:54,30-Sep-21,1.007,1.031,1.014049,1.062961
10:22:54,30-Sep-21,1.007,1.032,1.014049,1.065024
10:22:54,30-Sep-21,1.0165,1.034,1.03327225,1.069156
10:22:54,30-Sep-21,1.0315,1.035,1.06399225,1.071225
10:22:54,30-Sep-21,1.0315,1.036,1.06399225,1.073296
10:22:54,30-Sep-21,1.0555,1.038,1.11408025,1.077444
10:22:54,30-Sep-21,1.0555,1.039,1.11408025,1.079521
10:22:54,30-Sep-21,1.0605,1.04,1.12466025,1.0816
10:22:54,30-Sep-21,1.0555,1.041,1.11408025,1.083681
10:22:54,30-Sep-21,1.051,1.042,1.104601,1.085764
10:22:54,30-Sep-21,1.051,1.043,1.104601,1.087849
10:22:54,30-Sep-21,1.041,1.044,1.083681,1.089936
10:22:54,30-Sep-21,1.041,1.045,1.083681,1.092025
10:22:54,30-Sep-21,1.036,1.045,1.073296,1.092025
10:22:54,30-Sep-21,1.036,1.046,1.073296,1.094116
10:22:54,30-Sep-21,1.0315,1.047,1.06399225,1.096209
10:22:54,30-Sep-21,1.0315,1.047,1.06399225,1.096209
10:22:54,30-Sep-21,1.0315,1.048,1.06399225,1.098304
10:22:54,30-Sep-21,1.036,1.048,1.073296,1.098304
10:22:54,30-Sep-21,1.0555,1.049,1.11408025,1.100401
10:22:54,30-Sep-21,1.0555,1.049,1.11408025,1.100401
10:22:54,30-Sep-21,1.0655,1.05,1.13529025,1.1025
10:22:54,30-Sep-21,1.0655,1.05,1.13529025,1.1025
10:22:54,30-Sep-21,1.0705,1.051,1.14597025,1.104601
10:22:54,30-Sep-21,1.0705,1.051,1.14597025,1.104601
10:22:54,30-Sep-21,1.0705,1.052,1.14597025,1.106704
10:22:54,30-Sep-21,1.0655,1.052,1.13529025,1.106704
10:22:54,30-Sep-21,1.0655,1.053,1.13529025,1.108809
10:22:54,30-Sep-21,1.0555,1.053,1.11408025,1.108809
10:22:54,30-Sep-21,1.0555,1.054,1.11408025,1.110916
10:22:54,30-Sep-21,1.051,1.054,1.104601,1.110916
10:22:54,30-Sep-21,1.051,1.055,1.104601,1.113025
10:22:54,30-Sep-21,1.051,1.056,1.104601,1.115136
10:22:54,30-Sep-21,1.051,1.057,1.104601,1.117249
10:22:54,30-Sep-21,1.051,1.058,1.104601,1.119364
10:22:54,30-Sep-21,1.051,1.059,1.104601,1.121481
10:22:54,30-Sep-21,1.051,1.06,1.104601,1.1236
10:22:54,30-Sep-21,1.036,1.061,1.073296,1.125721
10:22:54,30-Sep-21,1.036,1.063,1.073296,1.129969
10:22:54,30-Sep-21,1.036,1.064,1.073296,1.132096
10:22:54,30-Sep-21,1.041,1.066,1.083681,1.136356
10:22:54,30-Sep-21,1.041,1.068,1.083681,1.140624
10:22:54,30-Sep-21,1.0605,1.069,1.12466025,1.142761
10:22:54,30-Sep-21,1.0605,1.071,1.12466025,1.147041
10:22:54,30-Sep-21,1.0755,1.073,1.15670025,1.151329
10:22:54,30-Sep-21,1.0755,1.075,1.15670025,1.155625
10:22:54,30-Sep-21,1.1095,1.077,1.23099025,1.159929
10:22:54,30-Sep-21,1.1095,1.08,1.23099025,1.1664
10:22:54,30-Sep-21,1.1095,1.082,1.23099025,1.170724
10:22:54,30-Sep-21,1.1095,1.084,1.23099025,1.175056
10:22:55,30-Sep-21,1.1045,1.086,1.21992025,1.179396
10:22:55,30-Sep-21,1.1045,1.089,1.21992025,1.185921
10:22:55,30-Sep-21,1.1045,1.091,1.21992025,1.190281
10:22:55,30-Sep-21,1.1045,1.093,1.21992025,1.194649
10:22:55,30-Sep-21,1.0995,1.095,1.20890025,1.199025
10:22:55,30-Sep-21,1.0995,1.098,1.20890025,1.205604
10:22:55,30-Sep-21,1.085,1.1,1.177225,1.21
10:22:55,30-Sep-21,1.085,1.102,1.177225,1.214404
10:22:55,30-Sep-21,1.085,1.104,1.177225,1.218816
10:22:55,30-Sep-21,1.085,1.106,1.177225,1.223236
10:22:55,30-Sep-21,1.08,1.108,1.1664,1.227664
10:22:55,30-Sep-21,1.08,1.11,1.1664,1.2321
10:22:55,30-Sep-21,1.09,1.112,1.1881,1.236544
10:22:55,30-Sep-21,1.1145,1.114,1.24211025,1.240996
10:22:55,30-Sep-21,1.1145,1.115,1.24211025,1.243225
10:22:55,30-Sep-21,1.1145,1.117,1.24211025,1.247689
10:22:55,30-Sep-21,1.1145,1.119,1.24211025,1.252161
10:22:55,30-Sep-21,1.129,1.12,1.274641,1.2544
10:22:55,30-Sep-21,1.1435,1.121,1.30759225,1.256641
10:22:55,30-Sep-21,1.1435,1.122,1.30759225,1.258884
10:22:55,30-Sep-21,1.1435,1.123,1.30759225,1.261129
10:22:55,30-Sep-21,1.1435,1.124,1.30759225,1.263376
10:22:55,30-Sep-21,1.1435,1.125,1.30759225,1.265625
10:22:55,30-Sep-21,1.134,1.125,1.285956,1.265625
10:22:55,30-Sep-21,1.134,1.126,1.285956,1.267876
10:22:55,30-Sep-21,1.134,1.126,1.285956,1.267876
10:22:55,30-Sep-21,1.129,1.126,1.274641,1.267876
10:22:55,30-Sep-21,1.1195,1.126,1.25328025,1.267876
10:22:55,30-Sep-21,1.1195,1.125,1.25328025,1.265625
10:22:55,30-Sep-21,1.1145,1.125,1.24211025,1.265625
10:22:55,30-Sep-21,1.1145,1.124,1.24211025,1.263376
10:22:55,30-Sep-21,1.1145,1.124,1.24211025,1.263376
10:22:55,30-Sep-21,1.1145,1.123,1.24211025,1.261129
10:22:55,30-Sep-21,1.1145,1.122,1.24211025,1.258884
10:22:55,30-Sep-21,1.1195,1.121,1.25328025,1.256641
10:22:55,30-Sep-21,1.1195,1.12,1.25328025,1.2544
10:22:55,30-Sep-21,1.139,1.119,1.297321,1.252161
10:22:55,30-Sep-21,1.134,1.118,1.285956,1.249924
10:22:55,30-Sep-21,1.134,1.117,1.285956,1.247689
10:22:55,30-Sep-21,1.129,1.115,1.274641,1.243225
10:22:55,30-Sep-21,1.129,1.114,1.274641,1.240996
10:22:55,30-Sep-21,1.129,1.113,1.274641,1.238769
10:22:55,30-Sep-21,1.1195,1.111,1.25328025,1.234321
10:22:55,30-Sep-21,1.1095,1.11,1.23099025,1.2321
10:22:55,30-Sep-21,1.1095,1.109,1.23099025,1.229881
10:22:55,30-Sep-21,1.09,1.107,1.1881,1.225449
10:22:55,30-Sep-21,1.09,1.106,1.1881,1.223236
10:22:55,30-Sep-21,1.085,1.105,1.177225,1.221025
10:22:55,30-Sep-21,1.085,1.104,1.177225,1.218816
10:22:55,30-Sep-21,1.085,1.103,1.177225,1.216609
10:22:55,30-Sep-21,1.0755,1.102,1.15670025,1.214404
10:22:55,30-Sep-21,1.0705,1.101,1.14597025,1.212201
10:22:55,30-Sep-21,1.0705,1.101,1.14597025,1.212201
10:22:55,30-Sep-21,1.09,1.1,1.1881,1.21
10:22:55,30-Sep-21,1.09,1.099,1.1881,1.207801
10:22:55,30-Sep-21,1.0995,1.099,1.20890025,1.207801
10:22:55,30-Sep-21,1.0995,1.098,1.20890025,1.205604
10:22:55,30-Sep-21,1.1145,1.098,1.24211025,1.205604
10:22:55,30-Sep-21,1.1145,1.098,1.24211025,1.205604
10:22:55,30-Sep-21,1.1145,1.097,1.24211025,1.203409
10:22:55,30-Sep-21,1.1145,1.097,1.24211025,1.203409
10:22:55,30-Sep-21,1.1145,1.097,1.24211025,1.203409
10:22:55,30-Sep-21,1.1145,1.097,1.24211025,1.203409
10:22:55,30-Sep-21,1.1045,1.096,1.21992025,1.201216
10:22:55,30-Sep-21,1.0995,1.096,1.20890025,1.201216
10:22:55,30-Sep-21,1.0995,1.096,1.20890025,1.201216
10:22:55,30-Sep-21,1.0995,1.095,1.20890025,1.199025
10:22:55,30-Sep-21,1.085,1.095,1.177225,1.199025
10:22:55,30-Sep-21,1.085,1.095,1.177225,1.199025
10:22:55,30-Sep-21,1.08,1.094,1.1664,1.196836
10:22:55,30-Sep-21,1.08,1.094,1.1664,1.196836
10:22:55,30-Sep-21,1.08,1.093,1.1664,1.194649
10:22:55,30-Sep-21,1.085,1.092,1.177225,1.192464
10:22:55,30-Sep-21,1.085,1.092,1.177225,1.192464
10:22:55,30-Sep-21,1.085,1.091,1.177225,1.190281
10:22:55,30-Sep-21,1.1045,1.09,1.21992025,1.1881
10:22:55,30-Sep-21,1.1045,1.089,1.21992025,1.185921
10:22:55,30-Sep-21,1.1095,1.088,1.23099025,1.183744
10:22:55,30-Sep-21,1.1045,1.087,1.21992025,1.181569
10:22:55,30-Sep-21,1.1045,1.086,1.21992025,1.179396
10:22:55,30-Sep-21,1.095,1.084,1.199025,1.175056
10:22:55,30-Sep-21,1.095,1.083,1.199025,1.172889
10:22:55,30-Sep-21,1.095,1.081,1.199025,1.168561
10:22:55,30-Sep-21,1.085,1.08,1.177225,1.1664
10:22:55,30-Sep-21,1.0655,1.078,1.13529025,1.162084
10:22:55,30-Sep-21,1.0655,1.076,1.13529025,1.157776
10:22:55,30-Sep-21,1.0555,1.075,1.11408025,1.155625
10:22:55,30-Sep-21,1.041,1.073,1.083681,1.151329
10:22:55,30-Sep-21,1.041,1.071,1.083681,1.147041
10:22:55,30-Sep-21,1.036,1.069,1.073296,1.142761
10:22:55,30-Sep-21,1.036,1.067,1.073296,1.138489
10:22:55,30-Sep-21,1.0555,1.064,1.11408025,1.132096
10:22:55,30-Sep-21,1.0555,1.062,1.11408025,1.127844
10:22:55,30-Sep-21,1.0555,1.06,1.11408025,1.1236
10:22:55,30-Sep-21,1.0555,1.057,1.11408025,1.117249
10:22:55,30-Sep-21,1.0605,1.055,1.12466025,1.113025
10:22:55,30-Sep-21,1.0605,1.052,1.12466025,1.106704
10:22:55,30-Sep-21,1.0605,1.05,1.12466025,1.1025
10:22:55,30-Sep-21,1.0755,1.047,1.15670025,1.096209
10:22:55,30-Sep-21,1.0755,1.045,1.15670025,1.092025
10:22:55,30-Sep-21,1.085,1.042,1.177225,1.085764
10:22:55,30-Sep-21,1.085,1.04,1.177225,1.0816
10:22:55,30-Sep-21,1.08,1.037,1.1664,1.075369
10:22:55,30-Sep-21,1.08,1.035,1.1664,1.071225
10:22:55,30-Sep-21,1.08,1.032,1.1664,1.065024
10:22:56,30-Sep-21,1.041,1.03,1.083681,1.0609
10:22:56,30-Sep-21,1.041,1.028,1.083681,1.056784
10:22:56,30-Sep-21,1.0165,1.026,1.03327225,1.052676
10:22:56,30-Sep-21,1.0165,1.024,1.03327225,1.048576
10:22:56,30-Sep-21,0.997,1.023,0.994009,1.046529
10:22:56,30-Sep-21,0.997,1.022,0.994009,1.044484
10:22:56,30-Sep-21,0.992,1.021,0.984064,1.042441
10:22:56,30-Sep-21,1.007,1.02,1.014049,1.0404
10:22:56,30-Sep-21,1.007,1.02,1.014049,1.0404
10:22:56,30-Sep-21,1.007,1.021,1.014049,1.042441
10:22:56,30-Sep-21,1.0215,1.021,1.04346225,1.042441
10:22:56,30-Sep-21,1.0215,1.022,1.04346225,1.044484
10:22:56,30-Sep-21,1.0215,1.024,1.04346225,1.048576
10:22:56,30-Sep-21,1.0215,1.026,1.04346225,1.052676
10:22:56,30-Sep-21,1.0165,1.029,1.03327225,1.058841
10:22:56,30-Sep-21,1.0165,1.031,1.03327225,1.062961
10:22:56,30-Sep-21,1.007,1.035,1.014049,1.071225
10:22:56,30-Sep-21,1.007,1.039,1.014049,1.079521
10:22:56,30-Sep-21,1.007,1.043,1.014049,1.087849
10:22:56,30-Sep-21,1.007,1.048,1.014049,1.098304
10:22:56,30-Sep-21,1.0115,1.053,1.02313225,1.108809
10:22:56,30-Sep-21,1.0265,1.059,1.05370225,1.121481
10:22:56,30-Sep-21,1.0265,1.065,1.05370225,1.134225
10:22:56,30-Sep-21,1.0605,1.071,1.12466025,1.147041
10:22:56,30-Sep-21,1.0605,1.077,1.12466025,1.159929
10:22:56,30-Sep-21,1.09,1.084,1.1881,1.175056
10:22:56,30-Sep-21,1.09,1.091,1.1881,1.190281
10:22:56,30-Sep-21,1.129,1.098,1.274641,1.205604
10:22:56,30-Sep-21,1.129,1.105,1.274641,1.221025
10:22:56,30-Sep-21,1.129,1.112,1.274641,1.236544
10:22:56,30-Sep-21,1.129,1.119,1.274641,1.252161
10:22:56,30-Sep-21,1.129,1.126,1.274641,1.267876
10:22:56,30-Sep-21,1.1585,1.133,1.34212225,1.283689
10:22:56,30-Sep-21,1.1585,1.14,1.34212225,1.2996
10:22:56,30-Sep-21,1.1585,1.147,1.34212225,1.315609
10:22:56,30-Sep-21,1.183,1.153,1.399489,1.329409
10:22:56,30-Sep-21,1.183,1.159,1.399489,1.343281
10:22:56,30-Sep-21,1.1975,1.165,1.43400625,1.357225
10:22:56,30-Sep-21,1.1975,1.171,1.43400625,1.371241
10:22:56,30-Sep-21,1.1975,1.176,1.43400625,1.382976
10:22:56,30-Sep-21,1.1975,1.181,1.43400625,1.394761
10:22:56,30-Sep-21,1.1975,1.186,1.43400625,1.406596
10:22:56,30-Sep-21,1.1975,1.19,1.43400625,1.4161
10:22:56,30-Sep-21,1.1975,1.194,1.43400625,1.425636
10:22:56,30-Sep-21,1.207,1.198,1.456849,1.435204
10:22:56,30-Sep-21,1.207,1.201,1.456849,1.442401
10:22:56,30-Sep-21,1.207,1.204,1.456849,1.449616
10:22:56,30-Sep-21,1.2025,1.207,1.44600625,1.456849
10:22:56,30-Sep-21,1.2025,1.209,1.44600625,1.461681
10:22:56,30-Sep-21,1.2025,1.211,1.44600625,1.466521
10:22:56,30-Sep-21,1.2025,1.213,1.44600625,1.471369
10:22:56,30-Sep-21,1.2025,1.214,1.44600625,1.473796
10:22:56,30-Sep-21,1.2025,1.216,1.44600625,1.478656
10:22:56,30-Sep-21,1.2025,1.217,1.44600625,1.481089
10:22:56,30-Sep-21,1.212,1.217,1.468944,1.481089
10:22:56,30-Sep-21,1.212,1.218,1.468944,1.483524
10:22:56,30-Sep-21,1.212,1.219,1.468944,1.485961
10:22:56,30-Sep-21,1.227,1.219,1.505529,1.485961
10:22:56,30-Sep-21,1.227,1.219,1.505529,1.485961
