Time,Date,EMG Value (V),Filtered Value (V),,
10:18:22,30-Sep-21,1.5105,1.511,2.28161025,2.283121
10:18:22,30-Sep-21,1.4955,1.509,2.23652025,2.277081
10:18:22,30-Sep-21,1.4955,1.508,2.23652025,2.274064
10:18:22,30-Sep-21,1.481,1.507,2.193361,2.271049
10:18:22,30-Sep-21,1.4665,1.506,2.15062225,2.268036
10:18:22,30-Sep-21,1.4665,1.505,2.15062225,2.265025
10:18:22,30-Sep-21,1.4665,1.504,2.15062225,2.262016
10:18:22,30-Sep-21,1.4665,1.503,2.15062225,2.259009
10:18:22,30-Sep-21,1.4905,1.502,2.22159025,2.256004
10:18:22,30-Sep-21,1.4905,1.502,2.22159025,2.256004
10:18:22,30-Sep-21,1.4905,1.501,2.22159025,2.253001
10:18:22,30-Sep-21,1.4955,1.501,2.23652025,2.253001
10:18:22,30-Sep-21,1.4955,1.501,2.23652025,2.253001
10:18:22,30-Sep-21,1.5105,1.501,2.28161025,2.253001
10:18:22,30-Sep-21,1.5105,1.502,2.28161025,2.256004
10:18:22,30-Sep-21,1.52,1.502,2.3104,2.256004
10:18:22,30-Sep-21,1.52,1.503,2.3104,2.259009
10:18:22,30-Sep-21,1.515,1.503,2.295225,2.259009
10:18:22,30-Sep-21,1.515,1.504,2.295225,2.262016
10:18:22,30-Sep-21,1.52,1.505,2.3104,2.265025
10:18:22,30-Sep-21,1.52,1.506,2.3104,2.268036
10:18:22,30-Sep-21,1.52,1.508,2.3104,2.274064
10:18:22,30-Sep-21,1.52,1.509,2.3104,2.277081
10:18:22,30-Sep-21,1.5055,1.51,2.26653025,2.2801
10:18:22,30-Sep-21,1.5055,1.512,2.26653025,2.286144
10:18:22,30-Sep-21,1.5055,1.514,2.26653025,2.292196
10:18:22,30-Sep-21,1.5105,1.516,2.28161025,2.298256
10:18:22,30-Sep-21,1.5105,1.518,2.28161025,2.304324
10:18:22,30-Sep-21,1.5105,1.52,2.28161025,2.3104
10:18:22,30-Sep-21,1.5105,1.522,2.28161025,2.316484
10:18:22,30-Sep-21,1.5105,1.524,2.28161025,2.322576
10:18:22,30-Sep-21,1.5105,1.526,2.28161025,2.328676
10:18:22,30-Sep-21,1.5105,1.528,2.28161025,2.334784
10:18:22,30-Sep-21,1.5105,1.531,2.28161025,2.343961
10:18:22,30-Sep-21,1.5105,1.533,2.28161025,2.350089
10:18:22,30-Sep-21,1.52,1.535,2.3104,2.356225
10:18:22,30-Sep-21,1.52,1.537,2.3104,2.362369
10:18:22,30-Sep-21,1.52,1.54,2.3104,2.3716
10:18:22,30-Sep-21,1.5345,1.542,2.35469025,2.377764
10:18:22,30-Sep-21,1.5345,1.544,2.35469025,2.383936
10:18:22,30-Sep-21,1.574,1.546,2.477476,2.390116
10:18:22,30-Sep-21,1.574,1.547,2.477476,2.393209
10:18:22,30-Sep-21,1.5785,1.549,2.49166225,2.399401
10:18:22,30-Sep-21,1.5785,1.551,2.49166225,2.405601
10:18:22,30-Sep-21,1.5785,1.552,2.49166225,2.408704
10:18:22,30-Sep-21,1.5785,1.553,2.49166225,2.411809
10:18:22,30-Sep-21,1.5785,1.554,2.49166225,2.414916
10:18:22,30-Sep-21,1.5785,1.555,2.49166225,2.418025
10:18:22,30-Sep-21,1.5785,1.556,2.49166225,2.421136
10:18:22,30-Sep-21,1.5785,1.556,2.49166225,2.421136
10:18:22,30-Sep-21,1.574,1.557,2.477476,2.424249
10:18:22,30-Sep-21,1.574,1.557,2.477476,2.424249
10:18:22,30-Sep-21,1.574,1.557,2.477476,2.424249
10:18:22,30-Sep-21,1.5545,1.557,2.41647025,2.424249
10:18:22,30-Sep-21,1.5545,1.557,2.41647025,2.424249
10:18:22,30-Sep-21,1.5495,1.557,2.40095025,2.424249
10:18:22,30-Sep-21,1.5495,1.557,2.40095025,2.424249
10:18:22,30-Sep-21,1.5395,1.557,2.37006025,2.424249
10:18:22,30-Sep-21,1.5395,1.557,2.37006025,2.424249
10:18:22,30-Sep-21,1.5395,1.556,2.37006025,2.421136
10:18:22,30-Sep-21,1.53,1.556,2.3409,2.421136
10:18:22,30-Sep-21,1.53,1.556,2.3409,2.421136
10:18:22,30-Sep-21,1.53,1.555,2.3409,2.418025
10:18:22,30-Sep-21,1.53,1.555,2.3409,2.418025
10:18:22,30-Sep-21,1.53,1.555,2.3409,2.418025
10:18:22,30-Sep-21,1.5495,1.555,2.40095025,2.418025
10:18:22,30-Sep-21,1.5495,1.554,2.40095025,2.414916
10:18:22,30-Sep-21,1.564,1.554,2.446096,2.414916
10:18:22,30-Sep-21,1.564,1.554,2.446096,2.414916
10:18:22,30-Sep-21,1.564,1.554,2.446096,2.414916
10:18:22,30-Sep-21,1.5835,1.555,2.50747225,2.418025
10:18:22,30-Sep-21,1.5835,1.555,2.50747225,2.418025
10:18:22,30-Sep-21,1.5835,1.555,2.50747225,2.418025
10:18:22,30-Sep-21,1.5835,1.555,2.50747225,2.418025
10:18:22,30-Sep-21,1.569,1.556,2.461761,2.421136
10:18:22,30-Sep-21,1.569,1.556,2.461761,2.421136
10:18:22,30-Sep-21,1.564,1.557,2.446096,2.424249
10:18:22,30-Sep-21,1.564,1.557,2.446096,2.424249
10:18:22,30-Sep-21,1.564,1.558,2.446096,2.427364
10:18:22,30-Sep-21,1.564,1.559,2.446096,2.430481
10:18:22,30-Sep-21,1.53,1.56,2.3409,2.4336
10:18:22,30-Sep-21,1.53,1.561,2.3409,2.436721
10:18:22,30-Sep-21,1.53,1.562,2.3409,2.439844
10:18:22,30-Sep-21,1.525,1.563,2.325625,2.442969
10:18:22,30-Sep-21,1.525,1.564,2.325625,2.446096
10:18:22,30-Sep-21,1.525,1.564,2.325625,2.446096
10:18:22,30-Sep-21,1.525,1.565,2.325625,2.449225
10:18:22,30-Sep-21,1.53,1.566,2.3409,2.452356
10:18:22,30-Sep-21,1.53,1.567,2.3409,2.455489
10:18:22,30-Sep-21,1.564,1.567,2.446096,2.455489
10:18:22,30-Sep-21,1.564,1.568,2.446096,2.458624
10:18:22,30-Sep-21,1.564,1.568,2.446096,2.458624
10:18:22,30-Sep-21,1.564,1.568,2.446096,2.458624
10:18:22,30-Sep-21,1.574,1.567,2.477476,2.455489
10:18:22,30-Sep-21,1.574,1.567,2.477476,2.455489
10:18:22,30-Sep-21,1.574,1.565,2.477476,2.449225
10:18:22,30-Sep-21,1.574,1.564,2.477476,2.446096
10:18:22,30-Sep-21,1.569,1.562,2.461761,2.439844
10:18:22,30-Sep-21,1.569,1.559,2.461761,2.430481
10:18:22,30-Sep-21,1.564,1.556,2.446096,2.421136
10:18:22,30-Sep-21,1.564,1.553,2.446096,2.411809
10:18:23,30-Sep-21,1.564,1.548,2.446096,2.396304
10:18:23,30-Sep-21,1.564,1.544,2.446096,2.383936
10:18:23,30-Sep-21,1.5445,1.538,2.38548025,2.365444
10:18:23,30-Sep-21,1.5445,1.532,2.38548025,2.347024
10:18:23,30-Sep-21,1.5345,1.526,2.35469025,2.328676
10:18:23,30-Sep-21,1.5345,1.518,2.35469025,2.304324
10:18:23,30-Sep-21,1.515,1.51,2.295225,2.2801
10:18:23,30-Sep-21,1.515,1.502,2.295225,2.256004
10:18:23,30-Sep-21,1.5105,1.492,2.28161025,2.226064
10:18:23,30-Sep-21,1.5105,1.483,2.28161025,2.199289
10:18:23,30-Sep-21,1.5105,1.472,2.28161025,2.166784
10:18:23,30-Sep-21,1.515,1.461,2.295225,2.134521
10:18:23,30-Sep-21,1.515,1.45,2.295225,2.1025
10:18:23,30-Sep-21,1.486,1.438,2.208196,2.067844
10:18:23,30-Sep-21,1.486,1.426,2.208196,2.033476
10:18:23,30-Sep-21,1.4515,1.413,2.10685225,1.996569
10:18:23,30-Sep-21,1.4515,1.4,2.10685225,1.96
10:18:23,30-Sep-21,1.398,1.387,1.954404,1.923769
10:18:23,30-Sep-21,1.398,1.374,1.954404,1.887876
10:18:23,30-Sep-21,1.339,1.361,1.792921,1.852321
10:18:23,30-Sep-21,1.339,1.347,1.792921,1.814409
10:18:23,30-Sep-21,1.2905,1.334,1.66539025,1.779556
10:18:23,30-Sep-21,1.2905,1.321,1.66539025,1.745041
10:18:23,30-Sep-21,1.2905,1.308,1.66539025,1.710864
10:18:23,30-Sep-21,1.2905,1.295,1.66539025,1.677025
10:18:23,30-Sep-21,1.251,1.283,1.565001,1.646089
10:18:23,30-Sep-21,1.207,1.271,1.456849,1.615441
10:18:23,30-Sep-21,1.207,1.26,1.456849,1.5876
10:18:23,30-Sep-21,1.207,1.248,1.456849,1.557504
10:18:23,30-Sep-21,1.183,1.238,1.399489,1.532644
10:18:23,30-Sep-21,1.183,1.228,1.399489,1.507984
10:18:23,30-Sep-21,1.163,1.218,1.352569,1.483524
10:18:23,30-Sep-21,1.163,1.21,1.352569,1.4641
10:18:23,30-Sep-21,1.163,1.201,1.352569,1.442401
10:18:23,30-Sep-21,1.163,1.194,1.352569,1.425636
10:18:23,30-Sep-21,1.163,1.186,1.352569,1.406596
10:18:23,30-Sep-21,1.163,1.18,1.352569,1.3924
10:18:23,30-Sep-21,1.163,1.174,1.352569,1.378276
10:18:23,30-Sep-21,1.163,1.168,1.352569,1.364224
10:18:23,30-Sep-21,1.1535,1.163,1.33056225,1.352569
10:18:23,30-Sep-21,1.1535,1.159,1.33056225,1.343281
10:18:23,30-Sep-21,1.1535,1.155,1.33056225,1.334025
10:18:23,30-Sep-21,1.168,1.151,1.364224,1.324801
10:18:23,30-Sep-21,1.168,1.148,1.364224,1.317904
10:18:23,30-Sep-21,1.168,1.145,1.364224,1.311025
10:18:23,30-Sep-21,1.163,1.142,1.352569,1.304164
10:18:23,30-Sep-21,1.163,1.14,1.352569,1.2996
10:18:23,30-Sep-21,1.163,1.138,1.352569,1.295044
10:18:23,30-Sep-21,1.1585,1.136,1.34212225,1.290496
10:18:23,30-Sep-21,1.1585,1.134,1.34212225,1.285956
10:18:23,30-Sep-21,1.1585,1.132,1.34212225,1.281424
10:18:23,30-Sep-21,1.1585,1.131,1.34212225,1.279161
10:18:23,30-Sep-21,1.1585,1.129,1.34212225,1.274641
10:18:23,30-Sep-21,1.1535,1.128,1.33056225,1.272384
10:18:23,30-Sep-21,1.1535,1.126,1.33056225,1.267876
10:18:23,30-Sep-21,1.1535,1.125,1.33056225,1.265625
10:18:23,30-Sep-21,1.1435,1.123,1.30759225,1.261129
10:18:23,30-Sep-21,1.1435,1.122,1.30759225,1.258884
10:18:23,30-Sep-21,1.1435,1.12,1.30759225,1.2544
10:18:23,30-Sep-21,1.124,1.119,1.263376,1.252161
10:18:23,30-Sep-21,1.124,1.117,1.263376,1.247689
10:18:23,30-Sep-21,1.1095,1.116,1.23099025,1.245456
10:18:23,30-Sep-21,1.1095,1.115,1.23099025,1.243225
10:18:23,30-Sep-21,1.09,1.113,1.1881,1.238769
10:18:23,30-Sep-21,1.09,1.112,1.1881,1.236544
10:18:23,30-Sep-21,1.09,1.11,1.1881,1.2321
10:18:23,30-Sep-21,1.085,1.109,1.177225,1.229881
10:18:23,30-Sep-21,1.085,1.108,1.177225,1.227664
10:18:23,30-Sep-21,1.085,1.106,1.177225,1.223236
10:18:23,30-Sep-21,1.085,1.105,1.177225,1.221025
10:18:23,30-Sep-21,1.085,1.104,1.177225,1.218816
10:18:23,30-Sep-21,1.085,1.103,1.177225,1.216609
10:18:23,30-Sep-21,1.095,1.102,1.199025,1.214404
10:18:23,30-Sep-21,1.095,1.101,1.199025,1.212201
10:18:23,30-Sep-21,1.1145,1.1,1.24211025,1.21
10:18:23,30-Sep-21,1.1145,1.099,1.24211025,1.207801
10:18:23,30-Sep-21,1.1145,1.098,1.24211025,1.205604
10:18:23,30-Sep-21,1.1145,1.097,1.24211025,1.203409
10:18:23,30-Sep-21,1.1145,1.096,1.24211025,1.201216
10:18:23,30-Sep-21,1.1045,1.096,1.21992025,1.201216
10:18:23,30-Sep-21,1.1045,1.095,1.21992025,1.199025
10:18:23,30-Sep-21,1.0995,1.095,1.20890025,1.199025
10:18:23,30-Sep-21,1.0995,1.094,1.20890025,1.196836
10:18:23,30-Sep-21,1.085,1.094,1.177225,1.196836
10:18:23,30-Sep-21,1.085,1.093,1.177225,1.194649
10:18:23,30-Sep-21,1.085,1.093,1.177225,1.194649
10:18:23,30-Sep-21,1.085,1.093,1.177225,1.194649
10:18:23,30-Sep-21,1.08,1.093,1.1664,1.194649
10:18:23,30-Sep-21,1.08,1.093,1.1664,1.194649
10:18:23,30-Sep-21,1.0755,1.093,1.15670025,1.194649
10:18:23,30-Sep-21,1.0755,1.093,1.15670025,1.194649
10:18:23,30-Sep-21,1.0755,1.093,1.15670025,1.194649
10:18:23,30-Sep-21,1.0755,1.093,1.15670025,1.194649
10:18:23,30-Sep-21,1.08,1.093,1.1664,1.194649
10:18:23,30-Sep-21,1.08,1.093,1.1664,1.194649
10:18:23,30-Sep-21,1.1045,1.094,1.21992025,1.196836
10:18:23,30-Sep-21,1.1045,1.094,1.21992025,1.196836
10:18:23,30-Sep-21,1.1045,1.094,1.21992025,1.196836
10:18:23,30-Sep-21,1.1095,1.094,1.23099025,1.196836
10:18:23,30-Sep-21,1.1095,1.095,1.23099025,1.199025
10:18:23,30-Sep-21,1.1195,1.095,1.25328025,1.199025
10:18:23,30-Sep-21,1.1195,1.095,1.25328025,1.199025
10:18:23,30-Sep-21,1.1145,1.095,1.24211025,1.199025
10:18:23,30-Sep-21,1.1145,1.095,1.24211025,1.199025
10:18:23,30-Sep-21,1.1045,1.095,1.21992025,1.199025
10:18:23,30-Sep-21,1.1045,1.095,1.21992025,1.199025
10:18:23,30-Sep-21,1.0995,1.095,1.20890025,1.199025
10:18:23,30-Sep-21,1.0995,1.095,1.20890025,1.199025
10:18:23,30-Sep-21,1.0995,1.095,1.20890025,1.199025
10:18:23,30-Sep-21,1.0995,1.095,1.20890025,1.199025
10:18:23,30-Sep-21,1.08,1.095,1.1664,1.199025
10:18:23,30-Sep-21,1.08,1.095,1.1664,1.199025
10:18:23,30-Sep-21,1.08,1.095,1.1664,1.199025
10:18:23,30-Sep-21,1.0755,1.095,1.15670025,1.199025
10:18:23,30-Sep-21,1.0755,1.095,1.15670025,1.199025
10:18:23,30-Sep-21,1.0755,1.095,1.15670025,1.199025
10:18:23,30-Sep-21,1.08,1.095,1.1664,1.199025
10:18:23,30-Sep-21,1.08,1.095,1.1664,1.199025
10:18:23,30-Sep-21,1.08,1.095,1.1664,1.199025
10:18:23,30-Sep-21,1.085,1.094,1.177225,1.196836
10:18:23,30-Sep-21,1.085,1.094,1.177225,1.196836
10:18:23,30-Sep-21,1.1095,1.094,1.23099025,1.196836
10:18:23,30-Sep-21,1.1095,1.094,1.23099025,1.196836
10:18:23,30-Sep-21,1.1095,1.094,1.23099025,1.196836
10:18:23,30-Sep-21,1.1095,1.093,1.23099025,1.194649
10:18:23,30-Sep-21,1.1095,1.093,1.23099025,1.194649
10:18:23,30-Sep-21,1.1095,1.093,1.23099025,1.194649
10:18:23,30-Sep-21,1.1095,1.093,1.23099025,1.194649
10:18:23,30-Sep-21,1.1045,1.092,1.21992025,1.192464
10:18:23,30-Sep-21,1.1045,1.092,1.21992025,1.192464
10:18:23,30-Sep-21,1.09,1.092,1.1881,1.192464
10:18:23,30-Sep-21,1.09,1.091,1.1881,1.190281
10:18:24,30-Sep-21,1.085,1.091,1.177225,1.190281
10:18:24,30-Sep-21,1.085,1.091,1.177225,1.190281
10:18:24,30-Sep-21,1.08,1.09,1.1664,1.1881
10:18:24,30-Sep-21,1.08,1.09,1.1664,1.1881
10:18:24,30-Sep-21,1.0705,1.089,1.14597025,1.185921
10:18:24,30-Sep-21,1.0705,1.089,1.14597025,1.185921
10:18:24,30-Sep-21,1.0705,1.089,1.14597025,1.185921
10:18:24,30-Sep-21,1.0705,1.088,1.14597025,1.183744
10:18:24,30-Sep-21,1.0705,1.088,1.14597025,1.183744
10:18:24,30-Sep-21,1.0755,1.088,1.15670025,1.183744
10:18:24,30-Sep-21,1.09,1.087,1.1881,1.181569
10:18:24,30-Sep-21,1.09,1.087,1.1881,1.181569
10:18:24,30-Sep-21,1.0995,1.087,1.20890025,1.181569
10:18:24,30-Sep-21,1.0995,1.087,1.20890025,1.181569
10:18:24,30-Sep-21,1.1095,1.087,1.23099025,1.181569
10:18:24,30-Sep-21,1.1095,1.087,1.23099025,1.181569
10:18:24,30-Sep-21,1.1095,1.087,1.23099025,1.181569
10:18:24,30-Sep-21,1.1095,1.087,1.23099025,1.181569
10:18:24,30-Sep-21,1.1095,1.087,1.23099025,1.181569
10:18:24,30-Sep-21,1.1095,1.087,1.23099025,1.181569
10:18:24,30-Sep-21,1.1095,1.087,1.23099025,1.181569
10:18:24,30-Sep-21,1.0995,1.088,1.20890025,1.183744
10:18:24,30-Sep-21,1.0995,1.088,1.20890025,1.183744
10:18:24,30-Sep-21,1.095,1.089,1.199025,1.185921
10:18:24,30-Sep-21,1.095,1.089,1.199025,1.185921
10:18:24,30-Sep-21,1.09,1.09,1.1881,1.1881
10:18:24,30-Sep-21,1.09,1.092,1.1881,1.192464
10:18:24,30-Sep-21,1.0755,1.093,1.15670025,1.194649
10:18:24,30-Sep-21,1.0755,1.095,1.15670025,1.199025
10:18:24,30-Sep-21,1.0755,1.096,1.15670025,1.201216
10:18:24,30-Sep-21,1.0755,1.098,1.15670025,1.205604
10:18:24,30-Sep-21,1.0755,1.101,1.15670025,1.212201
10:18:24,30-Sep-21,1.0755,1.103,1.15670025,1.216609
10:18:24,30-Sep-21,1.08,1.106,1.1664,1.223236
10:18:24,30-Sep-21,1.08,1.109,1.1664,1.229881
10:18:24,30-Sep-21,1.09,1.112,1.1881,1.236544
10:18:24,30-Sep-21,1.09,1.115,1.1881,1.243225
10:18:24,30-Sep-21,1.1195,1.119,1.25328025,1.252161
10:18:24,30-Sep-21,1.1195,1.123,1.25328025,1.261129
10:18:24,30-Sep-21,1.1195,1.127,1.25328025,1.270129
10:18:24,30-Sep-21,1.1195,1.131,1.25328025,1.279161
10:18:24,30-Sep-21,1.134,1.136,1.285956,1.290496
10:18:24,30-Sep-21,1.1535,1.14,1.33056225,1.2996
10:18:24,30-Sep-21,1.1535,1.145,1.33056225,1.311025
10:18:24,30-Sep-21,1.168,1.149,1.364224,1.320201
10:18:24,30-Sep-21,1.168,1.154,1.364224,1.331716
10:18:24,30-Sep-21,1.183,1.159,1.399489,1.343281
10:18:24,30-Sep-21,1.183,1.164,1.399489,1.354896
10:18:24,30-Sep-21,1.183,1.169,1.399489,1.366561
10:18:24,30-Sep-21,1.183,1.173,1.399489,1.375929
10:18:24,30-Sep-21,1.183,1.178,1.399489,1.387684
10:18:24,30-Sep-21,1.183,1.183,1.399489,1.399489
10:18:24,30-Sep-21,1.1925,1.188,1.42205625,1.411344
10:18:24,30-Sep-21,1.1925,1.192,1.42205625,1.420864
10:18:24,30-Sep-21,1.1875,1.197,1.41015625,1.432809
10:18:24,30-Sep-21,1.1875,1.201,1.41015625,1.442401
10:18:24,30-Sep-21,1.1975,1.205,1.43400625,1.452025
10:18:24,30-Sep-21,1.1975,1.209,1.43400625,1.461681
10:18:24,30-Sep-21,1.217,1.213,1.481089,1.471369
10:18:24,30-Sep-21,1.217,1.217,1.481089,1.481089
10:18:24,30-Sep-21,1.217,1.22,1.481089,1.4884
10:18:24,30-Sep-21,1.2315,1.224,1.51659225,1.498176
10:18:24,30-Sep-21,1.2315,1.227,1.51659225,1.505529
10:18:24,30-Sep-21,1.2315,1.229,1.51659225,1.510441
10:18:24,30-Sep-21,1.2315,1.232,1.51659225,1.517824
10:18:24,30-Sep-21,1.2315,1.234,1.51659225,1.522756
10:18:24,30-Sep-21,1.2315,1.236,1.51659225,1.527696
10:18:24,30-Sep-21,1.2315,1.237,1.51659225,1.530169
10:18:24,30-Sep-21,1.2315,1.239,1.51659225,1.535121
10:18:24,30-Sep-21,1.251,1.24,1.565001,1.5376
10:18:24,30-Sep-21,1.251,1.241,1.565001,1.540081
10:18:24,30-Sep-21,1.251,1.241,1.565001,1.540081
10:18:24,30-Sep-21,1.251,1.241,1.565001,1.540081
10:18:24,30-Sep-21,1.251,1.241,1.565001,1.540081
10:18:24,30-Sep-21,1.251,1.24,1.565001,1.5376
10:18:24,30-Sep-21,1.2415,1.239,1.54132225,1.535121
10:18:24,30-Sep-21,1.2415,1.238,1.54132225,1.532644
10:18:24,30-Sep-21,1.2415,1.237,1.54132225,1.530169
10:18:24,30-Sep-21,1.2415,1.235,1.54132225,1.525225
10:18:24,30-Sep-21,1.227,1.233,1.505529,1.520289
10:18:24,30-Sep-21,1.227,1.23,1.505529,1.5129
10:18:24,30-Sep-21,1.227,1.228,1.505529,1.507984
10:18:24,30-Sep-21,1.227,1.225,1.505529,1.500625
10:18:24,30-Sep-21,1.227,1.222,1.505529,1.493284
10:18:24,30-Sep-21,1.227,1.218,1.505529,1.483524
10:18:24,30-Sep-21,1.227,1.215,1.505529,1.476225
10:18:24,30-Sep-21,1.212,1.211,1.468944,1.466521
10:18:24,30-Sep-21,1.212,1.207,1.468944,1.456849
10:18:24,30-Sep-21,1.1875,1.203,1.41015625,1.447209
10:18:24,30-Sep-21,1.1875,1.198,1.41015625,1.435204
10:18:24,30-Sep-21,1.1875,1.194,1.41015625,1.425636
10:18:24,30-Sep-21,1.173,1.189,1.375929,1.413721
10:18:24,30-Sep-21,1.173,1.184,1.375929,1.401856
10:18:24,30-Sep-21,1.173,1.179,1.375929,1.390041
10:18:24,30-Sep-21,1.1585,1.174,1.34212225,1.378276
10:18:24,30-Sep-21,1.1585,1.169,1.34212225,1.366561
10:18:24,30-Sep-21,1.1585,1.164,1.34212225,1.354896
10:18:24,30-Sep-21,1.139,1.158,1.297321,1.340964
10:18:24,30-Sep-21,1.139,1.153,1.297321,1.329409
10:18:24,30-Sep-21,1.139,1.147,1.297321,1.315609
10:18:24,30-Sep-21,1.139,1.142,1.297321,1.304164
10:18:24,30-Sep-21,1.139,1.136,1.297321,1.290496
10:18:24,30-Sep-21,1.139,1.13,1.297321,1.2769
10:18:24,30-Sep-21,1.139,1.125,1.297321,1.265625
10:18:24,30-Sep-21,1.139,1.119,1.297321,1.252161
10:18:24,30-Sep-21,1.1195,1.113,1.25328025,1.238769
10:18:24,30-Sep-21,1.1195,1.107,1.25328025,1.225449
10:18:24,30-Sep-21,1.1195,1.101,1.25328025,1.212201
10:18:24,30-Sep-21,1.095,1.095,1.199025,1.199025
10:18:24,30-Sep-21,1.095,1.09,1.199025,1.1881
10:18:24,30-Sep-21,1.095,1.084,1.199025,1.175056
10:18:24,30-Sep-21,1.0755,1.078,1.15670025,1.162084
10:18:24,30-Sep-21,1.0755,1.072,1.15670025,1.149184
10:18:24,30-Sep-21,1.0755,1.067,1.15670025,1.138489
10:18:24,30-Sep-21,1.0755,1.061,1.15670025,1.125721
10:18:24,30-Sep-21,1.0755,1.055,1.15670025,1.113025
10:18:24,30-Sep-21,1.051,1.05,1.104601,1.1025
10:18:24,30-Sep-21,1.051,1.045,1.104601,1.092025
10:18:24,30-Sep-21,1.051,1.04,1.104601,1.0816
10:18:24,30-Sep-21,1.0265,1.035,1.05370225,1.071225
10:18:24,30-Sep-21,1.0265,1.03,1.05370225,1.0609
10:18:24,30-Sep-21,1.0265,1.025,1.05370225,1.050625
10:18:24,30-Sep-21,1.0115,1.02,1.02313225,1.0404
10:18:24,30-Sep-21,1.0115,1.016,1.02313225,1.032256
10:18:24,30-Sep-21,1.0115,1.012,1.02313225,1.024144
10:18:24,30-Sep-21,0.9875,1.008,0.97515625,1.016064
10:18:24,30-Sep-21,0.9875,1.004,0.97515625,1.008016
10:18:24,30-Sep-21,0.9875,1.001,0.97515625,1.002001
10:18:24,30-Sep-21,0.9725,0.998,0.94575625,0.996004
10:18:24,30-Sep-21,0.9725,0.995,0.94575625,0.990025
10:18:24,30-Sep-21,0.9725,0.992,0.94575625,0.984064
10:18:24,30-Sep-21,0.9725,0.989,0.94575625,0.978121
10:18:24,30-Sep-21,0.9725,0.987,0.94575625,0.974169
10:18:24,30-Sep-21,0.9725,0.985,0.94575625,0.970225
10:18:24,30-Sep-21,0.9725,0.983,0.94575625,0.966289
10:18:24,30-Sep-21,0.9725,0.981,0.94575625,0.962361
10:18:24,30-Sep-21,0.9725,0.979,0.94575625,0.958441
10:18:24,30-Sep-21,0.9725,0.978,0.94575625,0.956484
10:18:24,30-Sep-21,0.9725,0.976,0.94575625,0.952576
10:18:24,30-Sep-21,0.9875,0.975,0.97515625,0.950625
10:18:24,30-Sep-21,0.9875,0.974,0.97515625,0.948676
10:18:24,30-Sep-21,0.9875,0.973,0.97515625,0.946729
10:18:24,30-Sep-21,0.9875,0.972,0.97515625,0.944784
10:18:24,30-Sep-21,0.9875,0.971,0.97515625,0.942841
10:18:24,30-Sep-21,0.9875,0.97,0.97515625,0.9409
10:18:24,30-Sep-21,0.9875,0.969,0.97515625,0.938961
10:18:24,30-Sep-21,0.9875,0.968,0.97515625,0.937024
10:18:24,30-Sep-21,0.9825,0.967,0.96530625,0.935089
10:18:24,30-Sep-21,0.9825,0.966,0.96530625,0.933156
10:18:24,30-Sep-21,0.9825,0.965,0.96530625,0.931225
10:18:24,30-Sep-21,0.9725,0.964,0.94575625,0.929296
10:18:24,30-Sep-21,0.9725,0.963,0.94575625,0.927369
10:18:24,30-Sep-21,0.9675,0.962,0.93605625,0.925444
10:18:24,30-Sep-21,0.9675,0.961,0.93605625,0.923521
10:18:24,30-Sep-21,0.9675,0.96,0.93605625,0.9216
10:18:24,30-Sep-21,0.9675,0.959,0.93605625,0.919681
10:18:24,30-Sep-21,0.948,0.958,0.898704,0.917764
10:18:24,30-Sep-21,0.948,0.957,0.898704,0.915849
10:18:24,30-Sep-21,0.948,0.956,0.898704,0.913936
10:18:24,30-Sep-21,0.9435,0.955,0.89019225,0.912025
10:18:24,30-Sep-21,0.9435,0.954,0.89019225,0.910116
10:18:24,30-Sep-21,0.9435,0.953,0.89019225,0.908209
10:18:25,30-Sep-21,0.9435,0.952,0.89019225,0.906304
10:18:25,30-Sep-21,0.9435,0.951,0.89019225,0.904401
10:18:25,30-Sep-21,0.9335,0.95,0.87142225,0.9025
10:18:25,30-Sep-21,0.9335,0.949,0.87142225,0.900601
10:18:25,30-Sep-21,0.9335,0.948,0.87142225,0.898704
10:18:25,30-Sep-21,0.9285,0.947,0.86211225,0.896809
10:18:25,30-Sep-21,0.9285,0.947,0.86211225,0.896809
10:18:25,30-Sep-21,0.9435,0.946,0.89019225,0.894916
10:18:25,30-Sep-21,0.9435,0.945,0.89019225,0.893025
10:18:25,30-Sep-21,0.9435,0.944,0.89019225,0.891136
10:18:25,30-Sep-21,0.948,0.943,0.898704,0.889249
10:18:25,30-Sep-21,0.948,0.942,0.898704,0.887364
10:18:25,30-Sep-21,0.948,0.941,0.898704,0.885481
10:18:25,30-Sep-21,0.948,0.941,0.898704,0.885481
10:18:25,30-Sep-21,0.953,0.94,0.908209,0.8836
10:18:25,30-Sep-21,0.953,0.939,0.908209,0.881721
10:18:25,30-Sep-21,0.958,0.938,0.917764,0.879844
10:18:25,30-Sep-21,0.958,0.937,0.917764,0.877969
10:18:25,30-Sep-21,0.953,0.936,0.908209,0.876096
10:18:25,30-Sep-21,0.953,0.935,0.908209,0.874225
10:18:25,30-Sep-21,0.9385,0.934,0.88078225,0.872356
10:18:25,30-Sep-21,0.9385,0.934,0.88078225,0.872356
10:18:25,30-Sep-21,0.9335,0.933,0.87142225,0.870489
10:18:25,30-Sep-21,0.9335,0.932,0.87142225,0.868624
10:18:25,30-Sep-21,0.9335,0.931,0.87142225,0.866761
10:18:25,30-Sep-21,0.919,0.93,0.844561,0.8649
10:18:25,30-Sep-21,0.919,0.929,0.844561,0.863041
10:18:25,30-Sep-21,0.919,0.928,0.844561,0.861184
10:18:25,30-Sep-21,0.914,0.928,0.835396,0.861184
10:18:25,30-Sep-21,0.914,0.927,0.835396,0.859329
10:18:25,30-Sep-21,0.914,0.926,0.835396,0.857476
10:18:25,30-Sep-21,0.914,0.926,0.835396,0.857476
10:18:25,30-Sep-21,0.914,0.925,0.835396,0.855625
10:18:25,30-Sep-21,0.914,0.925,0.835396,0.855625
10:18:25,30-Sep-21,0.914,0.924,0.835396,0.853776
10:18:25,30-Sep-21,0.919,0.924,0.844561,0.853776
10:18:25,30-Sep-21,0.919,0.924,0.844561,0.853776
10:18:25,30-Sep-21,0.919,0.923,0.844561,0.851929
10:18:25,30-Sep-21,0.9385,0.923,0.88078225,0.851929
10:18:25,30-Sep-21,0.9385,0.923,0.88078225,0.851929
10:18:25,30-Sep-21,0.9435,0.923,0.89019225,0.851929
10:18:25,30-Sep-21,0.9435,0.923,0.89019225,0.851929
10:18:25,30-Sep-21,0.9385,0.923,0.88078225,0.851929
10:18:25,30-Sep-21,0.9385,0.924,0.88078225,0.853776
10:18:25,30-Sep-21,0.9385,0.924,0.88078225,0.853776
10:18:25,30-Sep-21,0.9385,0.924,0.88078225,0.853776
10:18:25,30-Sep-21,0.9385,0.925,0.88078225,0.855625
10:18:25,30-Sep-21,0.924,0.925,0.853776,0.855625
10:18:25,30-Sep-21,0.924,0.926,0.853776,0.857476
10:18:25,30-Sep-21,0.924,0.926,0.853776,0.857476
10:18:25,30-Sep-21,0.924,0.927,0.853776,0.859329
10:18:25,30-Sep-21,0.909,0.928,0.826281,0.861184
10:18:25,30-Sep-21,0.909,0.929,0.826281,0.863041
10:18:25,30-Sep-21,0.909,0.93,0.826281,0.8649
10:18:25,30-Sep-21,0.909,0.931,0.826281,0.866761
10:18:25,30-Sep-21,0.909,0.932,0.826281,0.868624
10:18:25,30-Sep-21,0.909,0.933,0.826281,0.870489
10:18:25,30-Sep-21,0.909,0.934,0.826281,0.872356
10:18:25,30-Sep-21,0.909,0.936,0.826281,0.876096
10:18:25,30-Sep-21,0.9285,0.937,0.86211225,0.877969
10:18:25,30-Sep-21,0.9285,0.938,0.86211225,0.879844
10:18:25,30-Sep-21,0.9435,0.94,0.89019225,0.8836
10:18:25,30-Sep-21,0.9435,0.941,0.89019225,0.885481
10:18:25,30-Sep-21,0.958,0.942,0.917764,0.887364
10:18:25,30-Sep-21,0.958,0.943,0.917764,0.889249
10:18:25,30-Sep-21,0.963,0.945,0.927369,0.893025
10:18:25,30-Sep-21,0.963,0.946,0.927369,0.894916
10:18:25,30-Sep-21,0.963,0.947,0.927369,0.896809
10:18:25,30-Sep-21,0.963,0.948,0.927369,0.898704
10:18:25,30-Sep-21,0.963,0.949,0.927369,0.900601
10:18:25,30-Sep-21,0.963,0.95,0.927369,0.9025
10:18:25,30-Sep-21,0.963,0.95,0.927369,0.9025
10:18:25,30-Sep-21,0.953,0.951,0.908209,0.904401
10:18:25,30-Sep-21,0.953,0.951,0.908209,0.904401
10:18:25,30-Sep-21,0.948,0.952,0.898704,0.906304
10:18:25,30-Sep-21,0.948,0.952,0.898704,0.906304
10:18:25,30-Sep-21,0.948,0.952,0.898704,0.906304
10:18:25,30-Sep-21,0.948,0.952,0.898704,0.906304
10:18:25,30-Sep-21,0.948,0.951,0.898704,0.904401
10:18:25,30-Sep-21,0.9435,0.951,0.89019225,0.904401
10:18:25,30-Sep-21,0.9435,0.95,0.89019225,0.9025
10:18:25,30-Sep-21,0.9435,0.95,0.89019225,0.9025
10:18:25,30-Sep-21,0.948,0.949,0.898704,0.900601
10:18:25,30-Sep-21,0.958,0.948,0.917764,0.898704
10:18:25,30-Sep-21,0.958,0.947,0.917764,0.896809
10:18:25,30-Sep-21,0.958,0.946,0.917764,0.894916
10:18:25,30-Sep-21,0.953,0.945,0.908209,0.893025
10:18:25,30-Sep-21,0.953,0.944,0.908209,0.891136
10:18:25,30-Sep-21,0.953,0.942,0.908209,0.887364
10:18:25,30-Sep-21,0.948,0.941,0.898704,0.885481
10:18:25,30-Sep-21,0.948,0.94,0.898704,0.8836
10:18:25,30-Sep-21,0.9435,0.938,0.89019225,0.879844
10:18:25,30-Sep-21,0.9435,0.937,0.89019225,0.877969
10:18:25,30-Sep-21,0.9435,0.935,0.89019225,0.874225
10:18:25,30-Sep-21,0.9285,0.934,0.86211225,0.872356
10:18:25,30-Sep-21,0.9285,0.932,0.86211225,0.868624
10:18:25,30-Sep-21,0.924,0.931,0.853776,0.866761
10:18:25,30-Sep-21,0.924,0.93,0.853776,0.8649
10:18:25,30-Sep-21,0.924,0.928,0.853776,0.861184
10:18:25,30-Sep-21,0.924,0.927,0.853776,0.859329
10:18:25,30-Sep-21,0.914,0.926,0.835396,0.857476
10:18:25,30-Sep-21,0.904,0.925,0.817216,0.855625
10:18:25,30-Sep-21,0.904,0.924,0.817216,0.853776
10:18:25,30-Sep-21,0.904,0.923,0.817216,0.851929
10:18:25,30-Sep-21,0.904,0.923,0.817216,0.851929
10:18:25,30-Sep-21,0.909,0.922,0.826281,0.850084
10:18:25,30-Sep-21,0.909,0.922,0.826281,0.850084
10:18:25,30-Sep-21,0.919,0.921,0.844561,0.848241
10:18:25,30-Sep-21,0.919,0.921,0.844561,0.848241
10:18:25,30-Sep-21,0.919,0.921,0.844561,0.848241
10:18:25,30-Sep-21,0.919,0.921,0.844561,0.848241
10:18:25,30-Sep-21,0.9385,0.921,0.88078225,0.848241
10:18:25,30-Sep-21,0.9385,0.922,0.88078225,0.850084
10:18:25,30-Sep-21,0.9385,0.922,0.88078225,0.850084
10:18:25,30-Sep-21,0.9385,0.923,0.88078225,0.851929
10:18:25,30-Sep-21,0.9385,0.923,0.88078225,0.851929
10:18:25,30-Sep-21,0.9385,0.924,0.88078225,0.853776
10:18:25,30-Sep-21,0.9335,0.925,0.87142225,0.855625
10:18:25,30-Sep-21,0.9335,0.925,0.87142225,0.855625
10:18:25,30-Sep-21,0.9335,0.926,0.87142225,0.857476
10:18:25,30-Sep-21,0.9335,0.927,0.87142225,0.859329
10:18:25,30-Sep-21,0.9335,0.929,0.87142225,0.863041
10:18:25,30-Sep-21,0.9335,0.93,0.87142225,0.8649
10:18:25,30-Sep-21,0.919,0.931,0.844561,0.866761
10:18:25,30-Sep-21,0.919,0.932,0.844561,0.868624
10:18:25,30-Sep-21,0.919,0.934,0.844561,0.872356
10:18:25,30-Sep-21,0.919,0.935,0.844561,0.874225
10:18:25,30-Sep-21,0.914,0.937,0.835396,0.877969
10:18:26,30-Sep-21,0.914,0.938,0.835396,0.879844
10:18:26,30-Sep-21,0.919,0.94,0.844561,0.8836
10:18:26,30-Sep-21,0.919,0.942,0.844561,0.887364
10:18:26,30-Sep-21,0.9435,0.943,0.89019225,0.889249
10:18:26,30-Sep-21,0.9435,0.945,0.89019225,0.893025
10:18:26,30-Sep-21,0.9435,0.947,0.89019225,0.896809
10:18:26,30-Sep-21,0.958,0.948,0.917764,0.898704
10:18:26,30-Sep-21,0.958,0.95,0.917764,0.9025
10:18:26,30-Sep-21,0.958,0.952,0.917764,0.906304
10:18:26,30-Sep-21,0.9675,0.953,0.93605625,0.908209
10:18:26,30-Sep-21,0.9675,0.955,0.93605625,0.912025
10:18:26,30-Sep-21,0.9675,0.956,0.93605625,0.913936
10:18:26,30-Sep-21,0.9725,0.957,0.94575625,0.915849
10:18:26,30-Sep-21,0.9725,0.959,0.94575625,0.919681
10:18:26,30-Sep-21,0.9725,0.96,0.94575625,0.9216
10:18:26,30-Sep-21,0.9725,0.961,0.94575625,0.923521
10:18:26,30-Sep-21,0.9725,0.962,0.94575625,0.925444
10:18:26,30-Sep-21,0.9725,0.963,0.94575625,0.927369
10:18:26,30-Sep-21,0.9725,0.964,0.94575625,0.929296
10:18:26,30-Sep-21,0.9725,0.964,0.94575625,0.929296
10:18:26,30-Sep-21,0.9725,0.965,0.94575625,0.931225
10:18:26,30-Sep-21,0.9675,0.966,0.93605625,0.933156
10:18:26,30-Sep-21,0.9675,0.966,0.93605625,0.933156
10:18:26,30-Sep-21,0.963,0.967,0.927369,0.935089
10:18:26,30-Sep-21,0.963,0.967,0.927369,0.935089
10:18:26,30-Sep-21,0.963,0.967,0.927369,0.935089
10:18:26,30-Sep-21,0.953,0.967,0.908209,0.935089
10:18:26,30-Sep-21,0.953,0.968,0.908209,0.937024
10:18:26,30-Sep-21,0.953,0.968,0.908209,0.937024
10:18:26,30-Sep-21,0.953,0.968,0.908209,0.937024
10:18:26,30-Sep-21,0.953,0.968,0.908209,0.937024
10:18:26,30-Sep-21,0.953,0.968,0.908209,0.937024
10:18:26,30-Sep-21,0.953,0.968,0.908209,0.937024
10:18:26,30-Sep-21,0.953,0.968,0.908209,0.937024
10:18:26,30-Sep-21,0.958,0.968,0.917764,0.937024
10:18:26,30-Sep-21,0.958,0.968,0.917764,0.937024
10:18:26,30-Sep-21,0.9775,0.967,0.95550625,0.935089
10:18:26,30-Sep-21,0.9775,0.967,0.95550625,0.935089
10:18:26,30-Sep-21,0.9825,0.967,0.96530625,0.935089
10:18:26,30-Sep-21,0.9825,0.967,0.96530625,0.935089
10:18:26,30-Sep-21,0.9825,0.966,0.96530625,0.933156
10:18:26,30-Sep-21,0.9825,0.966,0.96530625,0.933156
10:18:26,30-Sep-21,0.9825,0.966,0.96530625,0.933156
10:18:26,30-Sep-21,0.9775,0.965,0.95550625,0.931225
10:18:26,30-Sep-21,0.9775,0.965,0.95550625,0.931225
10:18:26,30-Sep-21,0.9725,0.964,0.94575625,0.929296
10:18:26,30-Sep-21,0.9725,0.964,0.94575625,0.929296
10:18:26,30-Sep-21,0.958,0.964,0.917764,0.929296
10:18:26,30-Sep-21,0.958,0.963,0.917764,0.927369
10:18:26,30-Sep-21,0.953,0.962,0.908209,0.925444
10:18:26,30-Sep-21,0.953,0.962,0.908209,0.925444
10:18:26,30-Sep-21,0.9435,0.961,0.89019225,0.923521
10:18:26,30-Sep-21,0.9435,0.961,0.89019225,0.923521
10:18:26,30-Sep-21,0.9435,0.96,0.89019225,0.9216
10:18:26,30-Sep-21,0.9385,0.96,0.88078225,0.9216
10:18:26,30-Sep-21,0.9385,0.959,0.88078225,0.919681
10:18:26,30-Sep-21,0.953,0.959,0.908209,0.919681
10:18:26,30-Sep-21,0.953,0.958,0.908209,0.917764
10:18:26,30-Sep-21,0.958,0.957,0.917764,0.915849
10:18:26,30-Sep-21,0.958,0.957,0.917764,0.915849
10:18:26,30-Sep-21,0.9675,0.956,0.93605625,0.913936
10:18:26,30-Sep-21,0.9675,0.956,0.93605625,0.913936
10:18:26,30-Sep-21,0.9675,0.955,0.93605625,0.912025
10:18:26,30-Sep-21,0.9675,0.954,0.93605625,0.910116
10:18:26,30-Sep-21,0.9725,0.954,0.94575625,0.910116
10:18:26,30-Sep-21,0.9675,0.953,0.93605625,0.908209
10:18:26,30-Sep-21,0.9675,0.953,0.93605625,0.908209
10:18:26,30-Sep-21,0.958,0.952,0.917764,0.906304
10:18:26,30-Sep-21,0.958,0.951,0.917764,0.904401
10:18:26,30-Sep-21,0.953,0.95,0.908209,0.9025
10:18:26,30-Sep-21,0.953,0.95,0.908209,0.9025
10:18:26,30-Sep-21,0.953,0.949,0.908209,0.900601
10:18:26,30-Sep-21,0.953,0.948,0.908209,0.898704
10:18:26,30-Sep-21,0.9385,0.948,0.88078225,0.898704
10:18:26,30-Sep-21,0.9385,0.947,0.88078225,0.896809
10:18:26,30-Sep-21,0.9385,0.946,0.88078225,0.894916
10:18:26,30-Sep-21,0.9335,0.946,0.87142225,0.894916
10:18:26,30-Sep-21,0.9335,0.945,0.87142225,0.893025
10:18:26,30-Sep-21,0.9335,0.945,0.87142225,0.893025
10:18:26,30-Sep-21,0.9335,0.944,0.87142225,0.891136
10:18:26,30-Sep-21,0.9335,0.944,0.87142225,0.891136
10:18:26,30-Sep-21,0.9335,0.943,0.87142225,0.889249
10:18:26,30-Sep-21,0.9335,0.943,0.87142225,0.889249
10:18:26,30-Sep-21,0.9335,0.942,0.87142225,0.887364
10:18:26,30-Sep-21,0.9385,0.942,0.88078225,0.887364
10:18:26,30-Sep-21,0.9385,0.942,0.88078225,0.887364
10:18:26,30-Sep-21,0.958,0.942,0.917764,0.887364
10:18:26,30-Sep-21,0.958,0.941,0.917764,0.885481
10:18:26,30-Sep-21,0.958,0.941,0.917764,0.885481
10:18:26,30-Sep-21,0.958,0.941,0.917764,0.885481
10:18:26,30-Sep-21,0.953,0.941,0.908209,0.885481
10:18:26,30-Sep-21,0.953,0.941,0.908209,0.885481
10:18:26,30-Sep-21,0.953,0.941,0.908209,0.885481
10:18:26,30-Sep-21,0.953,0.94,0.908209,0.8836
10:18:26,30-Sep-21,0.953,0.94,0.908209,0.8836
10:18:26,30-Sep-21,0.953,0.94,0.908209,0.8836
10:18:26,30-Sep-21,0.9385,0.941,0.88078225,0.885481
10:18:26,30-Sep-21,0.9385,0.941,0.88078225,0.885481
10:18:26,30-Sep-21,0.9335,0.941,0.87142225,0.885481
10:18:26,30-Sep-21,0.919,0.941,0.844561,0.885481
10:18:26,30-Sep-21,0.919,0.941,0.844561,0.885481
10:18:26,30-Sep-21,0.919,0.941,0.844561,0.885481
10:18:26,30-Sep-21,0.919,0.942,0.844561,0.887364
10:18:26,30-Sep-21,0.924,0.942,0.853776,0.887364
10:18:26,30-Sep-21,0.924,0.942,0.853776,0.887364
10:18:26,30-Sep-21,0.924,0.943,0.853776,0.889249
10:18:26,30-Sep-21,0.924,0.943,0.853776,0.889249
10:18:26,30-Sep-21,0.9385,0.943,0.88078225,0.889249
10:18:26,30-Sep-21,0.9385,0.944,0.88078225,0.891136
10:18:26,30-Sep-21,0.948,0.944,0.898704,0.891136
10:18:26,30-Sep-21,0.948,0.944,0.898704,0.891136
10:18:26,30-Sep-21,0.963,0.945,0.927369,0.893025
10:18:26,30-Sep-21,0.963,0.945,0.927369,0.893025
10:18:26,30-Sep-21,0.963,0.945,0.927369,0.893025
10:18:26,30-Sep-21,0.963,0.945,0.927369,0.893025
10:18:26,30-Sep-21,0.958,0.945,0.917764,0.893025
10:18:26,30-Sep-21,0.958,0.945,0.917764,0.893025
10:18:26,30-Sep-21,0.958,0.945,0.917764,0.893025
10:18:26,30-Sep-21,0.953,0.945,0.908209,0.893025
10:18:26,30-Sep-21,0.953,0.944,0.908209,0.891136
10:18:26,30-Sep-21,0.9385,0.944,0.88078225,0.891136
10:18:26,30-Sep-21,0.9385,0.943,0.88078225,0.889249
10:18:26,30-Sep-21,0.9335,0.943,0.87142225,0.889249
10:18:26,30-Sep-21,0.9335,0.942,0.87142225,0.887364
10:18:26,30-Sep-21,0.9335,0.941,0.87142225,0.885481
10:18:26,30-Sep-21,0.9335,0.94,0.87142225,0.8836
10:18:26,30-Sep-21,0.9335,0.939,0.87142225,0.881721
10:18:26,30-Sep-21,0.9335,0.938,0.87142225,0.879844
10:18:26,30-Sep-21,0.9335,0.936,0.87142225,0.876096
10:18:26,30-Sep-21,0.9285,0.935,0.86211225,0.874225
10:18:27,30-Sep-21,0.9285,0.934,0.86211225,0.872356
10:18:27,30-Sep-21,0.9285,0.932,0.86211225,0.868624
10:18:27,30-Sep-21,0.9385,0.931,0.88078225,0.866761
10:18:27,30-Sep-21,0.9385,0.929,0.88078225,0.863041
10:18:27,30-Sep-21,0.9435,0.927,0.89019225,0.859329
10:18:27,30-Sep-21,0.9435,0.926,0.89019225,0.857476
10:18:27,30-Sep-21,0.9385,0.924,0.88078225,0.853776
10:18:27,30-Sep-21,0.9385,0.922,0.88078225,0.850084
10:18:27,30-Sep-21,0.9385,0.921,0.88078225,0.848241
10:18:27,30-Sep-21,0.9385,0.919,0.88078225,0.844561
10:18:27,30-Sep-21,0.9335,0.918,0.87142225,0.842724
10:18:27,30-Sep-21,0.9335,0.916,0.87142225,0.839056
10:18:27,30-Sep-21,0.9335,0.915,0.87142225,0.837225
10:18:27,30-Sep-21,0.919,0.914,0.844561,0.835396
10:18:27,30-Sep-21,0.919,0.912,0.844561,0.831744
10:18:27,30-Sep-21,0.909,0.912,0.826281,0.831744
10:18:27,30-Sep-21,0.909,0.911,0.826281,0.829921
10:18:27,30-Sep-21,0.8995,0.91,0.80910025,0.8281
10:18:27,30-Sep-21,0.8995,0.91,0.80910025,0.8281
10:18:27,30-Sep-21,0.8995,0.91,0.80910025,0.8281
10:18:27,30-Sep-21,0.8895,0.91,0.79121025,0.8281
10:18:27,30-Sep-21,0.8895,0.91,0.79121025,0.8281
10:18:27,30-Sep-21,0.8845,0.911,0.78234025,0.829921
10:18:27,30-Sep-21,0.8845,0.912,0.78234025,0.831744
10:18:27,30-Sep-21,0.8845,0.913,0.78234025,0.833569
10:18:27,30-Sep-21,0.8845,0.915,0.78234025,0.837225
10:18:27,30-Sep-21,0.8945,0.917,0.80013025,0.840889
10:18:27,30-Sep-21,0.8945,0.919,0.80013025,0.844561
10:18:27,30-Sep-21,0.914,0.921,0.835396,0.848241
10:18:27,30-Sep-21,0.914,0.923,0.835396,0.851929
10:18:27,30-Sep-21,0.914,0.926,0.835396,0.857476
10:18:27,30-Sep-21,0.924,0.929,0.853776,0.863041
10:18:27,30-Sep-21,0.924,0.932,0.853776,0.868624
10:18:27,30-Sep-21,0.924,0.936,0.853776,0.876096
10:18:27,30-Sep-21,0.9385,0.939,0.88078225,0.881721
10:18:27,30-Sep-21,0.963,0.943,0.927369,0.889249
10:18:27,30-Sep-21,0.963,0.947,0.927369,0.896809
10:18:27,30-Sep-21,0.963,0.95,0.927369,0.9025
10:18:27,30-Sep-21,0.963,0.954,0.927369,0.910116
10:18:27,30-Sep-21,0.9725,0.958,0.94575625,0.917764
10:18:27,30-Sep-21,0.9725,0.962,0.94575625,0.925444
10:18:27,30-Sep-21,0.9725,0.965,0.94575625,0.931225
10:18:27,30-Sep-21,0.9725,0.969,0.94575625,0.938961
10:18:27,30-Sep-21,0.9775,0.973,0.95550625,0.946729
10:18:27,30-Sep-21,0.9775,0.976,0.95550625,0.952576
10:18:27,30-Sep-21,0.9775,0.979,0.95550625,0.958441
10:18:27,30-Sep-21,0.9825,0.983,0.96530625,0.966289
10:18:27,30-Sep-21,0.9825,0.986,0.96530625,0.972196
10:18:27,30-Sep-21,0.9875,0.988,0.97515625,0.976144
10:18:27,30-Sep-21,0.9875,0.991,0.97515625,0.982081
10:18:27,30-Sep-21,1.0115,0.993,1.02313225,0.986049
10:18:27,30-Sep-21,1.0115,0.996,1.02313225,0.992016
10:18:27,30-Sep-21,1.0115,0.998,1.02313225,0.996004
10:18:27,30-Sep-21,1.0165,0.999,1.03327225,0.998001
10:18:27,30-Sep-21,1.0165,1.001,1.03327225,1.002001
10:18:27,30-Sep-21,1.0265,1.002,1.05370225,1.004004
10:18:27,30-Sep-21,1.0265,1.003,1.05370225,1.006009
10:18:27,30-Sep-21,1.0265,1.004,1.05370225,1.008016
10:18:27,30-Sep-21,1.0265,1.005,1.05370225,1.010025
10:18:27,30-Sep-21,1.0165,1.005,1.03327225,1.010025
10:18:27,30-Sep-21,1.0165,1.006,1.03327225,1.012036
10:18:27,30-Sep-21,1.007,1.006,1.014049,1.012036
10:18:27,30-Sep-21,1.007,1.006,1.014049,1.012036
10:18:27,30-Sep-21,1.007,1.006,1.014049,1.012036
10:18:27,30-Sep-21,1.002,1.006,1.004004,1.012036
10:18:27,30-Sep-21,1.002,1.006,1.004004,1.012036
10:18:27,30-Sep-21,0.9875,1.005,0.97515625,1.010025
10:18:27,30-Sep-21,0.9875,1.005,0.97515625,1.010025
10:18:27,30-Sep-21,0.9875,1.005,0.97515625,1.010025
10:18:27,30-Sep-21,0.9875,1.004,0.97515625,1.008016
10:18:27,30-Sep-21,0.9875,1.004,0.97515625,1.008016
10:18:27,30-Sep-21,0.9875,1.004,0.97515625,1.008016
10:18:27,30-Sep-21,0.9875,1.004,0.97515625,1.008016
10:18:27,30-Sep-21,0.9875,1.003,0.97515625,1.006009
10:18:27,30-Sep-21,0.9875,1.003,0.97515625,1.006009
10:18:27,30-Sep-21,0.9875,1.003,0.97515625,1.006009
10:18:27,30-Sep-21,0.9875,1.003,0.97515625,1.006009
10:18:27,30-Sep-21,0.992,1.003,0.984064,1.006009
10:18:27,30-Sep-21,0.992,1.003,0.984064,1.006009
10:18:27,30-Sep-21,0.992,1.004,0.984064,1.008016
10:18:27,30-Sep-21,0.992,1.004,0.984064,1.008016
10:18:27,30-Sep-21,0.992,1.004,0.984064,1.008016
10:18:27,30-Sep-21,0.992,1.004,0.984064,1.008016
10:18:27,30-Sep-21,0.992,1.005,0.984064,1.010025
10:18:27,30-Sep-21,1.0165,1.005,1.03327225,1.010025
10:18:27,30-Sep-21,1.0165,1.005,1.03327225,1.010025
10:18:27,30-Sep-21,1.0165,1.006,1.03327225,1.012036
10:18:27,30-Sep-21,1.0165,1.006,1.03327225,1.012036
10:18:27,30-Sep-21,1.0215,1.006,1.04346225,1.012036
10:18:27,30-Sep-21,1.0215,1.006,1.04346225,1.012036
10:18:27,30-Sep-21,1.0215,1.007,1.04346225,1.014049
10:18:27,30-Sep-21,1.0215,1.007,1.04346225,1.014049
10:18:27,30-Sep-21,1.0215,1.007,1.04346225,1.014049
10:18:27,30-Sep-21,1.0215,1.007,1.04346225,1.014049
10:18:27,30-Sep-21,1.0215,1.007,1.04346225,1.014049
10:18:27,30-Sep-21,1.0165,1.006,1.03327225,1.012036
10:18:27,30-Sep-21,1.0165,1.006,1.03327225,1.012036
10:18:27,30-Sep-21,1.0165,1.006,1.03327225,1.012036
10:18:27,30-Sep-21,1.0165,1.006,1.03327225,1.012036
10:18:27,30-Sep-21,1.0165,1.005,1.03327225,1.010025
10:18:27,30-Sep-21,1.0115,1.005,1.02313225,1.010025
10:18:27,30-Sep-21,1.0115,1.004,1.02313225,1.008016
10:18:27,30-Sep-21,1.0115,1.003,1.02313225,1.006009
10:18:27,30-Sep-21,0.997,1.003,0.994009,1.006009
10:18:27,30-Sep-21,0.997,1.002,0.994009,1.004004
10:18:27,30-Sep-21,0.997,1.001,0.994009,1.002001
10:18:27,30-Sep-21,0.992,1.001,0.984064,1.002001
10:18:27,30-Sep-21,0.992,1,0.984064,1
10:18:27,30-Sep-21,0.9825,0.999,0.96530625,0.998001
10:18:27,30-Sep-21,0.9825,0.999,0.96530625,0.998001
10:18:27,30-Sep-21,0.9825,0.998,0.96530625,0.996004
10:18:27,30-Sep-21,0.9825,0.997,0.96530625,0.994009
10:18:27,30-Sep-21,0.9775,0.997,0.95550625,0.994009
10:18:27,30-Sep-21,0.9775,0.996,0.95550625,0.992016
10:18:27,30-Sep-21,0.9775,0.995,0.95550625,0.990025
10:18:27,30-Sep-21,0.9775,0.995,0.95550625,0.990025
10:18:27,30-Sep-21,0.992,0.994,0.984064,0.988036
10:18:27,30-Sep-21,0.992,0.994,0.984064,0.988036
10:18:27,30-Sep-21,0.997,0.993,0.994009,0.986049
10:18:27,30-Sep-21,0.997,0.993,0.994009,0.986049
10:18:27,30-Sep-21,1.007,0.993,1.014049,0.986049
10:18:27,30-Sep-21,1.007,0.992,1.014049,0.984064
10:18:27,30-Sep-21,1.007,0.992,1.014049,0.984064
10:18:27,30-Sep-21,1.007,0.991,1.014049,0.982081
10:18:27,30-Sep-21,1.007,0.991,1.014049,0.982081
10:18:27,30-Sep-21,1.007,0.991,1.014049,0.982081
10:18:27,30-Sep-21,1.007,0.991,1.014049,0.982081
10:18:27,30-Sep-21,1.007,0.99,1.014049,0.9801
10:18:27,30-Sep-21,0.997,0.99,0.994009,0.9801
10:18:27,30-Sep-21,0.992,0.99,0.984064,0.9801
10:18:27,30-Sep-21,0.992,0.99,0.984064,0.9801
10:18:27,30-Sep-21,0.9775,0.989,0.95550625,0.978121
10:18:27,30-Sep-21,0.9775,0.989,0.95550625,0.978121
10:18:27,30-Sep-21,0.9775,0.989,0.95550625,0.978121
10:18:27,30-Sep-21,0.9725,0.989,0.94575625,0.978121
10:18:27,30-Sep-21,0.9725,0.989,0.94575625,0.978121
10:18:27,30-Sep-21,0.9725,0.989,0.94575625,0.978121
10:18:27,30-Sep-21,0.9725,0.989,0.94575625,0.978121
10:18:27,30-Sep-21,0.9725,0.989,0.94575625,0.978121
10:18:27,30-Sep-21,0.9725,0.989,0.94575625,0.978121
10:18:27,30-Sep-21,0.9725,0.989,0.94575625,0.978121
10:18:27,30-Sep-21,0.997,0.989,0.994009,0.978121
10:18:28,30-Sep-21,1.002,0.989,1.004004,0.978121
10:18:28,30-Sep-21,1.002,0.989,1.004004,0.978121
10:18:28,30-Sep-21,1.002,0.989,1.004004,0.978121
10:18:28,30-Sep-21,1.002,0.989,1.004004,0.978121
10:18:28,30-Sep-21,1.007,0.989,1.014049,0.978121
10:18:28,30-Sep-21,1.007,0.989,1.014049,0.978121
10:18:28,30-Sep-21,1.007,0.989,1.014049,0.978121
10:18:28,30-Sep-21,1.007,0.989,1.014049,0.978121
10:18:28,30-Sep-21,1.002,0.99,1.004004,0.9801
10:18:28,30-Sep-21,1.002,0.99,1.004004,0.9801
10:18:28,30-Sep-21,0.9875,0.99,0.97515625,0.9801
10:18:28,30-Sep-21,0.9875,0.99,0.97515625,0.9801
10:18:28,30-Sep-21,0.9825,0.99,0.96530625,0.9801
10:18:28,30-Sep-21,0.9825,0.99,0.96530625,0.9801
10:18:28,30-Sep-21,0.9825,0.99,0.96530625,0.9801
10:18:28,30-Sep-21,0.9725,0.99,0.94575625,0.9801
10:18:28,30-Sep-21,0.9725,0.99,0.94575625,0.9801
10:18:28,30-Sep-21,0.9725,0.99,0.94575625,0.9801
10:18:28,30-Sep-21,0.9725,0.99,0.94575625,0.9801
10:18:28,30-Sep-21,0.9775,0.99,0.95550625,0.9801
10:18:28,30-Sep-21,0.9775,0.991,0.95550625,0.982081
10:18:28,30-Sep-21,0.9825,0.991,0.96530625,0.982081
10:18:28,30-Sep-21,0.9825,0.991,0.96530625,0.982081
10:18:28,30-Sep-21,0.9825,0.991,0.96530625,0.982081
10:18:28,30-Sep-21,0.992,0.991,0.984064,0.982081
10:18:28,30-Sep-21,0.992,0.991,0.984064,0.982081
10:18:28,30-Sep-21,0.992,0.991,0.984064,0.982081
10:18:28,30-Sep-21,1.007,0.991,1.014049,0.982081
10:18:28,30-Sep-21,1.007,0.991,1.014049,0.982081
10:18:28,30-Sep-21,1.007,0.991,1.014049,0.982081
10:18:28,30-Sep-21,1.007,0.991,1.014049,0.982081
10:18:28,30-Sep-21,1.007,0.991,1.014049,0.982081
10:18:28,30-Sep-21,1.002,0.991,1.004004,0.982081
10:18:28,30-Sep-21,1.002,0.991,1.004004,0.982081
10:18:28,30-Sep-21,1.002,0.991,1.004004,0.982081
10:18:28,30-Sep-21,1.002,0.991,1.004004,0.982081
10:18:28,30-Sep-21,1.002,0.99,1.004004,0.9801
10:18:28,30-Sep-21,1.002,0.99,1.004004,0.9801
10:18:28,30-Sep-21,1.002,0.99,1.004004,0.9801
10:18:28,30-Sep-21,0.992,0.99,0.984064,0.9801
10:18:28,30-Sep-21,0.992,0.99,0.984064,0.9801
10:18:28,30-Sep-21,0.992,0.989,0.984064,0.978121
10:18:28,30-Sep-21,0.9775,0.989,0.95550625,0.978121
10:18:28,30-Sep-21,0.9775,0.989,0.95550625,0.978121
10:18:28,30-Sep-21,0.9775,0.989,0.95550625,0.978121
10:18:28,30-Sep-21,0.9775,0.989,0.95550625,0.978121
10:18:28,30-Sep-21,0.9775,0.989,0.95550625,0.978121
10:18:28,30-Sep-21,0.9675,0.989,0.93605625,0.978121
10:18:28,30-Sep-21,0.9675,0.989,0.93605625,0.978121
10:18:28,30-Sep-21,0.9675,0.989,0.93605625,0.978121
10:18:28,30-Sep-21,0.9675,0.989,0.93605625,0.978121
10:18:28,30-Sep-21,0.9675,0.989,0.93605625,0.978121
10:18:28,30-Sep-21,0.9675,0.989,0.93605625,0.978121
10:18:28,30-Sep-21,0.9725,0.99,0.94575625,0.9801
10:18:28,30-Sep-21,0.997,0.99,0.994009,0.9801
10:18:28,30-Sep-21,0.997,0.99,0.994009,0.9801
10:18:28,30-Sep-21,1.002,0.99,1.004004,0.9801
10:18:28,30-Sep-21,1.002,0.991,1.004004,0.982081
10:18:28,30-Sep-21,1.007,0.991,1.014049,0.982081
10:18:28,30-Sep-21,1.007,0.991,1.014049,0.982081
10:18:28,30-Sep-21,1.0115,0.991,1.02313225,0.982081
10:18:28,30-Sep-21,1.0115,0.992,1.02313225,0.984064
10:18:28,30-Sep-21,1.0115,0.992,1.02313225,0.984064
10:18:28,30-Sep-21,1.0115,0.992,1.02313225,0.984064
10:18:28,30-Sep-21,1.002,0.992,1.004004,0.984064
10:18:28,30-Sep-21,0.997,0.992,0.994009,0.984064
10:18:28,30-Sep-21,0.997,0.993,0.994009,0.986049
10:18:28,30-Sep-21,0.9825,0.993,0.96530625,0.986049
10:18:28,30-Sep-21,0.9825,0.993,0.96530625,0.986049
10:18:28,30-Sep-21,0.9775,0.993,0.95550625,0.986049
10:18:28,30-Sep-21,0.9775,0.993,0.95550625,0.986049
10:18:28,30-Sep-21,0.9775,0.992,0.95550625,0.984064
10:18:28,30-Sep-21,0.9775,0.992,0.95550625,0.984064
10:18:28,30-Sep-21,0.9775,0.992,0.95550625,0.984064
10:18:28,30-Sep-21,0.9875,0.992,0.97515625,0.984064
10:18:28,30-Sep-21,0.992,0.992,0.984064,0.984064
10:18:28,30-Sep-21,1.007,0.991,1.014049,0.982081
10:18:28,30-Sep-21,1.007,0.991,1.014049,0.982081
10:18:28,30-Sep-21,1.007,0.991,1.014049,0.982081
10:18:28,30-Sep-21,1.007,0.991,1.014049,0.982081
10:18:28,30-Sep-21,1.007,0.99,1.014049,0.9801
10:18:28,30-Sep-21,1.002,0.99,1.004004,0.9801
10:18:28,30-Sep-21,1.002,0.99,1.004004,0.9801
10:18:28,30-Sep-21,0.9875,0.989,0.97515625,0.978121
10:18:28,30-Sep-21,0.9875,0.989,0.97515625,0.978121
10:18:28,30-Sep-21,0.9875,0.988,0.97515625,0.976144
10:18:28,30-Sep-21,0.9825,0.988,0.96530625,0.976144
10:18:28,30-Sep-21,0.9825,0.988,0.96530625,0.976144
10:18:28,30-Sep-21,0.9825,0.987,0.96530625,0.974169
10:18:28,30-Sep-21,0.9825,0.987,0.96530625,0.974169
10:18:28,30-Sep-21,0.9825,0.987,0.96530625,0.974169
10:18:28,30-Sep-21,0.9825,0.987,0.96530625,0.974169
10:18:28,30-Sep-21,0.9775,0.987,0.95550625,0.974169
10:18:28,30-Sep-21,0.9775,0.986,0.95550625,0.972196
10:18:28,30-Sep-21,0.9775,0.986,0.95550625,0.972196
10:18:28,30-Sep-21,0.9725,0.986,0.94575625,0.972196
10:18:28,30-Sep-21,0.9725,0.986,0.94575625,0.972196
10:18:28,30-Sep-21,0.9725,0.986,0.94575625,0.972196
10:18:28,30-Sep-21,0.9725,0.986,0.94575625,0.972196
10:18:28,30-Sep-21,0.9725,0.986,0.94575625,0.972196
10:18:28,30-Sep-21,0.9725,0.987,0.94575625,0.974169
10:18:28,30-Sep-21,0.992,0.987,0.984064,0.974169
10:18:28,30-Sep-21,0.992,0.987,0.984064,0.974169
10:18:28,30-Sep-21,0.992,0.987,0.984064,0.974169
10:18:28,30-Sep-21,0.992,0.987,0.984064,0.974169
10:18:28,30-Sep-21,0.992,0.987,0.984064,0.974169
10:18:28,30-Sep-21,1.002,0.987,1.004004,0.974169
10:18:28,30-Sep-21,1.002,0.987,1.004004,0.974169
10:18:28,30-Sep-21,1.007,0.987,1.014049,0.974169
10:18:28,30-Sep-21,1.007,0.987,1.014049,0.974169
10:18:28,30-Sep-21,1.007,0.987,1.014049,0.974169
10:18:28,30-Sep-21,0.997,0.987,0.994009,0.974169
10:18:28,30-Sep-21,0.997,0.987,0.994009,0.974169
10:18:28,30-Sep-21,0.9875,0.986,0.97515625,0.972196
10:18:28,30-Sep-21,0.9875,0.986,0.97515625,0.972196
10:18:28,30-Sep-21,0.9875,0.986,0.97515625,0.972196
10:18:28,30-Sep-21,0.9825,0.985,0.96530625,0.970225
10:18:28,30-Sep-21,0.9825,0.985,0.96530625,0.970225
10:18:28,30-Sep-21,0.9825,0.984,0.96530625,0.968256
10:18:28,30-Sep-21,0.963,0.983,0.927369,0.966289
10:18:28,30-Sep-21,0.963,0.983,0.927369,0.966289
10:18:28,30-Sep-21,0.958,0.982,0.917764,0.964324
10:18:28,30-Sep-21,0.958,0.981,0.917764,0.962361
10:18:28,30-Sep-21,0.958,0.98,0.917764,0.9604
10:18:28,30-Sep-21,0.958,0.979,0.917764,0.958441
10:18:28,30-Sep-21,0.963,0.978,0.927369,0.956484
10:18:28,30-Sep-21,0.963,0.977,0.927369,0.954529
10:18:28,30-Sep-21,0.9825,0.975,0.96530625,0.950625
10:18:28,30-Sep-21,0.9825,0.974,0.96530625,0.948676
10:18:28,30-Sep-21,0.9825,0.973,0.96530625,0.946729
10:18:29,30-Sep-21,0.9875,0.971,0.97515625,0.942841
10:18:29,30-Sep-21,0.9875,0.969,0.97515625,0.938961
10:18:29,30-Sep-21,0.9875,0.967,0.97515625,0.935089
10:18:29,30-Sep-21,0.9875,0.965,0.97515625,0.931225
10:18:29,30-Sep-21,0.9825,0.963,0.96530625,0.927369
10:18:29,30-Sep-21,0.9825,0.961,0.96530625,0.923521
10:18:29,30-Sep-21,0.9775,0.959,0.95550625,0.919681
10:18:29,30-Sep-21,0.9775,0.957,0.95550625,0.915849
10:18:29,30-Sep-21,0.958,0.954,0.917764,0.910116
10:18:29,30-Sep-21,0.958,0.952,0.917764,0.906304
10:18:29,30-Sep-21,0.958,0.949,0.917764,0.900601
10:18:29,30-Sep-21,0.958,0.946,0.917764,0.894916
10:18:29,30-Sep-21,0.9435,0.944,0.89019225,0.891136
10:18:29,30-Sep-21,0.9435,0.941,0.89019225,0.885481
10:18:29,30-Sep-21,0.919,0.938,0.844561,0.879844
10:18:29,30-Sep-21,0.909,0.936,0.826281,0.876096
10:18:29,30-Sep-21,0.909,0.933,0.826281,0.870489
10:18:29,30-Sep-21,0.909,0.93,0.826281,0.8649
10:18:29,30-Sep-21,0.909,0.928,0.826281,0.861184
10:18:29,30-Sep-21,0.909,0.925,0.826281,0.855625
10:18:29,30-Sep-21,0.909,0.923,0.826281,0.851929
10:18:29,30-Sep-21,0.909,0.92,0.826281,0.8464
10:18:29,30-Sep-21,0.909,0.918,0.826281,0.842724
10:18:29,30-Sep-21,0.919,0.915,0.844561,0.837225
10:18:29,30-Sep-21,0.919,0.913,0.844561,0.833569
10:18:29,30-Sep-21,0.919,0.911,0.844561,0.829921
10:18:29,30-Sep-21,0.919,0.909,0.844561,0.826281
10:18:29,30-Sep-21,0.914,0.907,0.835396,0.822649
10:18:29,30-Sep-21,0.914,0.905,0.835396,0.819025
10:18:29,30-Sep-21,0.914,0.903,0.835396,0.815409
10:18:29,30-Sep-21,0.909,0.902,0.826281,0.813604
10:18:29,30-Sep-21,0.909,0.9,0.826281,0.81
10:18:29,30-Sep-21,0.909,0.899,0.826281,0.808201
10:18:29,30-Sep-21,0.8995,0.897,0.80910025,0.804609
10:18:29,30-Sep-21,0.8995,0.896,0.80910025,0.802816
10:18:29,30-Sep-21,0.8895,0.895,0.79121025,0.801025
10:18:29,30-Sep-21,0.8895,0.894,0.79121025,0.799236
10:18:29,30-Sep-21,0.8845,0.893,0.78234025,0.797449
10:18:29,30-Sep-21,0.8845,0.893,0.78234025,0.797449
10:18:29,30-Sep-21,0.88,0.892,0.7744,0.795664
10:18:29,30-Sep-21,0.88,0.892,0.7744,0.795664
10:18:29,30-Sep-21,0.88,0.891,0.7744,0.793881
10:18:29,30-Sep-21,0.88,0.891,0.7744,0.793881
10:18:29,30-Sep-21,0.88,0.891,0.7744,0.793881
10:18:29,30-Sep-21,0.88,0.891,0.7744,0.793881
10:18:29,30-Sep-21,0.88,0.891,0.7744,0.793881
10:18:29,30-Sep-21,0.8945,0.891,0.80013025,0.793881
10:18:29,30-Sep-21,0.904,0.891,0.817216,0.793881
10:18:29,30-Sep-21,0.904,0.892,0.817216,0.795664
10:18:29,30-Sep-21,0.909,0.892,0.826281,0.795664
10:18:29,30-Sep-21,0.909,0.893,0.826281,0.797449
10:18:29,30-Sep-21,0.909,0.893,0.826281,0.797449
10:18:29,30-Sep-21,0.909,0.894,0.826281,0.799236
10:18:29,30-Sep-21,0.909,0.895,0.826281,0.801025
10:18:29,30-Sep-21,0.909,0.896,0.826281,0.802816
10:18:29,30-Sep-21,0.909,0.896,0.826281,0.802816
10:18:29,30-Sep-21,0.909,0.897,0.826281,0.804609
10:18:29,30-Sep-21,0.8995,0.898,0.80910025,0.806404
10:18:29,30-Sep-21,0.8945,0.899,0.80013025,0.808201
10:18:29,30-Sep-21,0.8945,0.901,0.80013025,0.811801
10:18:29,30-Sep-21,0.8945,0.902,0.80013025,0.813604
10:18:29,30-Sep-21,0.8945,0.903,0.80013025,0.815409
10:18:29,30-Sep-21,0.8845,0.904,0.78234025,0.817216
10:18:29,30-Sep-21,0.8845,0.906,0.78234025,0.820836
10:18:29,30-Sep-21,0.8895,0.907,0.79121025,0.822649
10:18:29,30-Sep-21,0.8895,0.909,0.79121025,0.826281
10:18:29,30-Sep-21,0.8945,0.91,0.80013025,0.8281
10:18:29,30-Sep-21,0.8945,0.912,0.80013025,0.831744
10:18:29,30-Sep-21,0.909,0.913,0.826281,0.833569
10:18:29,30-Sep-21,0.909,0.915,0.826281,0.837225
10:18:29,30-Sep-21,0.909,0.916,0.826281,0.839056
10:18:29,30-Sep-21,0.919,0.918,0.844561,0.842724
10:18:29,30-Sep-21,0.919,0.919,0.844561,0.844561
10:18:29,30-Sep-21,0.9385,0.921,0.88078225,0.848241
10:18:29,30-Sep-21,0.9385,0.922,0.88078225,0.850084
10:18:29,30-Sep-21,0.9385,0.924,0.88078225,0.853776
10:18:29,30-Sep-21,0.9435,0.925,0.89019225,0.855625
10:18:29,30-Sep-21,0.9435,0.927,0.89019225,0.859329
10:18:29,30-Sep-21,0.9435,0.928,0.89019225,0.861184
10:18:29,30-Sep-21,0.9285,0.929,0.86211225,0.863041
10:18:29,30-Sep-21,0.9285,0.93,0.86211225,0.8649
10:18:29,30-Sep-21,0.9285,0.931,0.86211225,0.866761
10:18:29,30-Sep-21,0.9285,0.932,0.86211225,0.868624
10:18:29,30-Sep-21,0.919,0.933,0.844561,0.870489
10:18:29,30-Sep-21,0.919,0.934,0.844561,0.872356
10:18:29,30-Sep-21,0.924,0.934,0.853776,0.872356
10:18:29,30-Sep-21,0.9385,0.935,0.88078225,0.874225
10:18:29,30-Sep-21,0.9385,0.936,0.88078225,0.876096
10:18:29,30-Sep-21,0.9385,0.936,0.88078225,0.876096
10:18:29,30-Sep-21,0.9385,0.936,0.88078225,0.876096
10:18:29,30-Sep-21,0.9435,0.937,0.89019225,0.877969
10:18:29,30-Sep-21,0.9435,0.937,0.89019225,0.877969
10:18:29,30-Sep-21,0.948,0.937,0.898704,0.877969
10:18:29,30-Sep-21,0.953,0.937,0.908209,0.877969
10:18:29,30-Sep-21,0.953,0.937,0.908209,0.877969
10:18:29,30-Sep-21,0.953,0.937,0.908209,0.877969
10:18:29,30-Sep-21,0.9435,0.936,0.89019225,0.876096
10:18:29,30-Sep-21,0.9435,0.936,0.89019225,0.876096
10:18:29,30-Sep-21,0.9435,0.936,0.89019225,0.876096
10:18:29,30-Sep-21,0.9435,0.936,0.89019225,0.876096
10:18:29,30-Sep-21,0.9435,0.936,0.89019225,0.876096
10:18:29,30-Sep-21,0.9385,0.935,0.88078225,0.874225
10:18:29,30-Sep-21,0.9385,0.935,0.88078225,0.874225
10:18:29,30-Sep-21,0.924,0.935,0.853776,0.874225
10:18:29,30-Sep-21,0.924,0.935,0.853776,0.874225
10:18:29,30-Sep-21,0.924,0.935,0.853776,0.874225
10:18:29,30-Sep-21,0.919,0.935,0.844561,0.874225
10:18:29,30-Sep-21,0.919,0.935,0.844561,0.874225
10:18:29,30-Sep-21,0.919,0.935,0.844561,0.874225
10:18:29,30-Sep-21,0.914,0.935,0.835396,0.874225
10:18:29,30-Sep-21,0.914,0.935,0.835396,0.874225
10:18:29,30-Sep-21,0.914,0.935,0.835396,0.874225
10:18:29,30-Sep-21,0.914,0.936,0.835396,0.876096
10:18:29,30-Sep-21,0.914,0.936,0.835396,0.876096
10:18:29,30-Sep-21,0.919,0.936,0.844561,0.876096
10:18:29,30-Sep-21,0.919,0.937,0.844561,0.877969
10:18:29,30-Sep-21,0.919,0.937,0.844561,0.877969
10:18:29,30-Sep-21,0.948,0.938,0.898704,0.879844
10:18:29,30-Sep-21,0.948,0.938,0.898704,0.879844
10:18:29,30-Sep-21,0.953,0.939,0.908209,0.881721
10:18:29,30-Sep-21,0.953,0.939,0.908209,0.881721
10:18:30,30-Sep-21,0.958,0.94,0.917764,0.8836
10:18:30,30-Sep-21,0.958,0.94,0.917764,0.8836
10:18:30,30-Sep-21,0.958,0.941,0.917764,0.885481
10:18:30,30-Sep-21,0.963,0.941,0.927369,0.885481
10:18:30,30-Sep-21,0.963,0.941,0.927369,0.885481
10:18:30,30-Sep-21,0.948,0.942,0.898704,0.887364
10:18:30,30-Sep-21,0.948,0.942,0.898704,0.887364
10:18:30,30-Sep-21,0.948,0.942,0.898704,0.887364
10:18:30,30-Sep-21,0.948,0.942,0.898704,0.887364
10:18:30,30-Sep-21,0.9385,0.942,0.88078225,0.887364
10:18:30,30-Sep-21,0.9385,0.941,0.88078225,0.885481
10:18:30,30-Sep-21,0.9385,0.941,0.88078225,0.885481
10:18:30,30-Sep-21,0.9385,0.941,0.88078225,0.885481
10:18:30,30-Sep-21,0.9385,0.94,0.88078225,0.8836
10:18:30,30-Sep-21,0.9385,0.94,0.88078225,0.8836
10:18:30,30-Sep-21,0.9385,0.939,0.88078225,0.881721
10:18:30,30-Sep-21,0.9335,0.938,0.87142225,0.879844
10:18:30,30-Sep-21,0.9335,0.938,0.87142225,0.879844
10:18:30,30-Sep-21,0.9335,0.937,0.87142225,0.877969
10:18:30,30-Sep-21,0.9385,0.936,0.88078225,0.876096
10:18:30,30-Sep-21,0.9385,0.935,0.88078225,0.874225
10:18:30,30-Sep-21,0.9385,0.934,0.88078225,0.872356
10:18:30,30-Sep-21,0.9385,0.933,0.88078225,0.870489
10:18:30,30-Sep-21,0.9385,0.933,0.88078225,0.870489
10:18:30,30-Sep-21,0.948,0.932,0.898704,0.868624
10:18:30,30-Sep-21,0.948,0.931,0.898704,0.866761
10:18:30,30-Sep-21,0.9435,0.93,0.89019225,0.8649
10:18:30,30-Sep-21,0.9335,0.929,0.87142225,0.863041
10:18:30,30-Sep-21,0.9285,0.928,0.86211225,0.861184
10:18:30,30-Sep-21,0.914,0.928,0.835396,0.861184
10:18:30,30-Sep-21,0.909,0.927,0.826281,0.859329
10:18:30,30-Sep-21,0.909,0.926,0.826281,0.857476
10:18:30,30-Sep-21,0.909,0.926,0.826281,0.857476
10:18:30,30-Sep-21,0.909,0.926,0.826281,0.857476
10:18:30,30-Sep-21,0.909,0.926,0.826281,0.857476
10:18:30,30-Sep-21,0.909,0.925,0.826281,0.855625
10:18:30,30-Sep-21,0.9335,0.926,0.87142225,0.857476
10:18:30,30-Sep-21,0.9385,0.926,0.88078225,0.857476
10:18:30,30-Sep-21,0.9385,0.926,0.88078225,0.857476
10:18:30,30-Sep-21,0.9435,0.927,0.89019225,0.859329
10:18:30,30-Sep-21,0.9435,0.927,0.89019225,0.859329
10:18:30,30-Sep-21,0.9435,0.928,0.89019225,0.861184
10:18:30,30-Sep-21,0.9385,0.929,0.88078225,0.863041
10:18:30,30-Sep-21,0.9385,0.931,0.88078225,0.866761
10:18:30,30-Sep-21,0.9385,0.932,0.88078225,0.868624
10:18:30,30-Sep-21,0.9335,0.934,0.87142225,0.872356
10:18:30,30-Sep-21,0.9335,0.935,0.87142225,0.874225
10:18:30,30-Sep-21,0.9285,0.937,0.86211225,0.877969
10:18:30,30-Sep-21,0.9285,0.94,0.86211225,0.8836
10:18:30,30-Sep-21,0.919,0.942,0.844561,0.887364
10:18:30,30-Sep-21,0.919,0.945,0.844561,0.893025
10:18:30,30-Sep-21,0.919,0.947,0.844561,0.896809
10:18:30,30-Sep-21,0.924,0.95,0.853776,0.9025
10:18:30,30-Sep-21,0.948,0.953,0.898704,0.908209
10:18:30,30-Sep-21,0.948,0.957,0.898704,0.915849
10:18:30,30-Sep-21,0.953,0.96,0.908209,0.9216
10:18:30,30-Sep-21,0.9675,0.963,0.93605625,0.927369
10:18:30,30-Sep-21,0.9825,0.967,0.96530625,0.935089
10:18:30,30-Sep-21,0.9825,0.971,0.96530625,0.942841
10:18:30,30-Sep-21,0.9825,0.974,0.96530625,0.948676
10:18:30,30-Sep-21,0.9825,0.978,0.96530625,0.956484
10:18:30,30-Sep-21,0.9875,0.982,0.97515625,0.964324
10:18:30,30-Sep-21,0.9875,0.986,0.97515625,0.972196
10:18:30,30-Sep-21,0.992,0.99,0.984064,0.9801
10:18:30,30-Sep-21,0.992,0.994,0.984064,0.988036
10:18:30,30-Sep-21,0.992,0.998,0.984064,0.996004
10:18:30,30-Sep-21,0.992,1.002,0.984064,1.004004
10:18:30,30-Sep-21,0.992,1.005,0.984064,1.010025
10:18:30,30-Sep-21,0.992,1.009,0.984064,1.018081
10:18:30,30-Sep-21,1.002,1.013,1.004004,1.026169
10:18:30,30-Sep-21,1.0265,1.016,1.05370225,1.032256
10:18:30,30-Sep-21,1.0265,1.019,1.05370225,1.038361
10:18:30,30-Sep-21,1.041,1.023,1.083681,1.046529
10:18:30,30-Sep-21,1.041,1.026,1.083681,1.052676
10:18:30,30-Sep-21,1.0555,1.029,1.11408025,1.058841
10:18:30,30-Sep-21,1.0555,1.031,1.11408025,1.062961
10:18:30,30-Sep-21,1.0555,1.034,1.11408025,1.069156
10:18:30,30-Sep-21,1.0555,1.036,1.11408025,1.073296
10:18:30,30-Sep-21,1.0555,1.038,1.11408025,1.077444
10:18:30,30-Sep-21,1.0555,1.04,1.11408025,1.0816
10:18:30,30-Sep-21,1.046,1.042,1.094116,1.085764
10:18:30,30-Sep-21,1.046,1.044,1.094116,1.089936
10:18:30,30-Sep-21,1.041,1.045,1.083681,1.092025
10:18:30,30-Sep-21,1.041,1.046,1.083681,1.094116
10:18:30,30-Sep-21,1.0265,1.047,1.05370225,1.096209
10:18:30,30-Sep-21,1.0265,1.048,1.05370225,1.098304
10:18:30,30-Sep-21,1.0265,1.049,1.05370225,1.100401
10:18:30,30-Sep-21,1.0265,1.049,1.05370225,1.100401
10:18:30,30-Sep-21,1.0265,1.05,1.05370225,1.1025
10:18:30,30-Sep-21,1.0315,1.05,1.06399225,1.1025
10:18:30,30-Sep-21,1.0555,1.05,1.11408025,1.1025
10:18:30,30-Sep-21,1.0555,1.05,1.11408025,1.1025
10:18:30,30-Sep-21,1.0605,1.05,1.12466025,1.1025
10:18:30,30-Sep-21,1.0605,1.049,1.12466025,1.100401
10:18:30,30-Sep-21,1.0655,1.049,1.13529025,1.100401
10:18:31,30-Sep-21,1.0605,1.048,1.12466025,1.098304
10:18:31,30-Sep-21,1.0605,1.047,1.12466025,1.096209
10:18:31,30-Sep-21,1.041,1.046,1.083681,1.094116
10:18:31,30-Sep-21,1.041,1.045,1.083681,1.092025
10:18:31,30-Sep-21,1.036,1.043,1.073296,1.087849
10:18:31,30-Sep-21,1.036,1.042,1.073296,1.085764
10:18:31,30-Sep-21,1.0215,1.041,1.04346225,1.083681
10:18:31,30-Sep-21,1.0165,1.039,1.03327225,1.079521
10:18:31,30-Sep-21,1.0165,1.037,1.03327225,1.075369
10:18:31,30-Sep-21,1.0165,1.035,1.03327225,1.071225
10:18:31,30-Sep-21,1.0265,1.033,1.05370225,1.067089
10:18:31,30-Sep-21,1.036,1.031,1.073296,1.062961
10:18:31,30-Sep-21,1.036,1.029,1.073296,1.058841
10:18:31,30-Sep-21,1.041,1.027,1.083681,1.054729
10:18:31,30-Sep-21,1.051,1.024,1.104601,1.048576
10:18:31,30-Sep-21,1.051,1.022,1.104601,1.044484
10:18:31,30-Sep-21,1.046,1.019,1.094116,1.038361
10:18:31,30-Sep-21,1.046,1.016,1.094116,1.032256
10:18:31,30-Sep-21,1.0315,1.014,1.06399225,1.028196
10:18:31,30-Sep-21,1.0265,1.011,1.05370225,1.022121
10:18:31,30-Sep-21,1.007,1.008,1.014049,1.016064
10:18:31,30-Sep-21,0.997,1.006,0.994009,1.012036
10:18:31,30-Sep-21,0.992,1.003,0.984064,1.006009
10:18:31,30-Sep-21,0.992,1,0.984064,1
10:18:31,30-Sep-21,0.9825,0.997,0.96530625,0.994009
10:18:31,30-Sep-21,0.9825,0.994,0.96530625,0.988036
10:18:31,30-Sep-21,0.9775,0.992,0.95550625,0.984064
10:18:31,30-Sep-21,0.992,0.989,0.984064,0.978121
10:18:31,30-Sep-21,0.992,0.987,0.984064,0.974169
10:18:31,30-Sep-21,0.9875,0.984,0.97515625,0.968256
10:18:31,30-Sep-21,0.9875,0.982,0.97515625,0.964324
10:18:31,30-Sep-21,0.9875,0.979,0.97515625,0.958441
10:18:31,30-Sep-21,0.9825,0.977,0.96530625,0.954529
10:18:31,30-Sep-21,0.9675,0.975,0.93605625,0.950625
10:18:31,30-Sep-21,0.9675,0.973,0.93605625,0.946729
10:18:31,30-Sep-21,0.9675,0.972,0.93605625,0.944784
10:18:31,30-Sep-21,0.9435,0.97,0.89019225,0.9409
10:18:31,30-Sep-21,0.9435,0.968,0.89019225,0.937024
10:18:31,30-Sep-21,0.9435,0.967,0.89019225,0.935089
10:18:31,30-Sep-21,0.9435,0.966,0.89019225,0.933156
10:18:31,30-Sep-21,0.9385,0.964,0.88078225,0.929296
10:18:31,30-Sep-21,0.948,0.963,0.898704,0.927369
10:18:31,30-Sep-21,0.953,0.963,0.908209,0.927369
10:18:31,30-Sep-21,0.953,0.962,0.908209,0.925444
10:18:31,30-Sep-21,0.9725,0.961,0.94575625,0.923521
10:18:31,30-Sep-21,0.9725,0.96,0.94575625,0.9216
10:18:31,30-Sep-21,0.9775,0.96,0.95550625,0.9216
10:18:31,30-Sep-21,0.9775,0.959,0.95550625,0.919681
10:18:31,30-Sep-21,0.9725,0.959,0.94575625,0.919681
10:18:31,30-Sep-21,0.9725,0.958,0.94575625,0.917764
10:18:31,30-Sep-21,0.9725,0.958,0.94575625,0.917764
10:18:31,30-Sep-21,0.9725,0.958,0.94575625,0.917764
10:18:31,30-Sep-21,0.963,0.958,0.927369,0.917764
10:18:31,30-Sep-21,0.963,0.957,0.927369,0.915849
10:18:31,30-Sep-21,0.963,0.957,0.927369,0.915849
10:18:31,30-Sep-21,0.953,0.957,0.908209,0.915849
10:18:31,30-Sep-21,0.953,0.957,0.908209,0.915849
10:18:31,30-Sep-21,0.953,0.956,0.908209,0.913936
10:18:31,30-Sep-21,0.948,0.956,0.898704,0.913936
10:18:31,30-Sep-21,0.948,0.956,0.898704,0.913936
10:18:31,30-Sep-21,0.948,0.956,0.898704,0.913936
10:18:31,30-Sep-21,0.948,0.955,0.898704,0.912025
10:18:31,30-Sep-21,0.948,0.955,0.898704,0.912025
10:18:31,30-Sep-21,0.963,0.955,0.927369,0.912025
10:18:31,30-Sep-21,0.963,0.955,0.927369,0.912025
10:18:31,30-Sep-21,0.9675,0.955,0.93605625,0.912025
10:18:31,30-Sep-21,0.9775,0.955,0.95550625,0.912025
10:18:31,30-Sep-21,0.9775,0.954,0.95550625,0.910116
10:18:31,30-Sep-21,0.9775,0.954,0.95550625,0.910116
10:18:31,30-Sep-21,0.9675,0.954,0.93605625,0.910116
10:18:31,30-Sep-21,0.9675,0.954,0.93605625,0.910116
10:18:31,30-Sep-21,0.963,0.955,0.927369,0.912025
10:18:31,30-Sep-21,0.963,0.955,0.927369,0.912025
10:18:31,30-Sep-21,0.963,0.955,0.927369,0.912025
10:18:31,30-Sep-21,0.958,0.956,0.917764,0.913936
10:18:31,30-Sep-21,0.958,0.956,0.917764,0.913936
10:18:31,30-Sep-21,0.9435,0.957,0.89019225,0.915849
10:18:31,30-Sep-21,0.9435,0.958,0.89019225,0.917764
10:18:31,30-Sep-21,0.9435,0.959,0.89019225,0.919681
10:18:31,30-Sep-21,0.9435,0.96,0.89019225,0.9216
10:18:31,30-Sep-21,0.9435,0.961,0.89019225,0.923521
10:18:31,30-Sep-21,0.9435,0.963,0.89019225,0.927369
10:18:31,30-Sep-21,0.948,0.965,0.898704,0.931225
10:18:31,30-Sep-21,0.948,0.967,0.898704,0.935089
10:18:31,30-Sep-21,0.9675,0.969,0.93605625,0.938961
10:18:31,30-Sep-21,0.9675,0.971,0.93605625,0.942841
10:18:31,30-Sep-21,0.9725,0.974,0.94575625,0.948676
10:18:31,30-Sep-21,0.9775,0.977,0.95550625,0.954529
10:18:31,30-Sep-21,0.9775,0.98,0.95550625,0.9604
10:18:31,30-Sep-21,0.9725,0.983,0.94575625,0.966289
10:18:32,30-Sep-21,0.9725,0.986,0.94575625,0.972196
10:18:32,30-Sep-21,0.9725,0.99,0.94575625,0.9801
10:18:32,30-Sep-21,0.9775,0.993,0.95550625,0.986049
10:18:32,30-Sep-21,0.9825,0.997,0.96530625,0.994009
10:18:32,30-Sep-21,0.997,1.001,0.994009,1.002001
10:18:32,30-Sep-21,0.997,1.004,0.994009,1.008016
10:18:32,30-Sep-21,0.997,1.008,0.994009,1.016064
10:18:32,30-Sep-21,1.007,1.012,1.014049,1.024144
10:18:32,30-Sep-21,1.007,1.016,1.014049,1.032256
10:18:32,30-Sep-21,1.007,1.02,1.014049,1.0404
10:18:32,30-Sep-21,1.0315,1.024,1.06399225,1.048576
10:18:32,30-Sep-21,1.046,1.027,1.094116,1.054729
10:18:32,30-Sep-21,1.0655,1.031,1.13529025,1.062961
10:18:32,30-Sep-21,1.0705,1.035,1.14597025,1.071225
10:18:32,30-Sep-21,1.0705,1.038,1.14597025,1.077444
10:18:32,30-Sep-21,1.0705,1.041,1.14597025,1.083681
10:18:32,30-Sep-21,1.0655,1.044,1.13529025,1.089936
10:18:32,30-Sep-21,1.0655,1.047,1.13529025,1.096209
10:18:32,30-Sep-21,1.0655,1.05,1.13529025,1.1025
10:18:32,30-Sep-21,1.051,1.053,1.104601,1.108809
10:18:32,30-Sep-21,1.051,1.055,1.104601,1.113025
10:18:32,30-Sep-21,1.046,1.058,1.094116,1.119364
10:18:32,30-Sep-21,1.046,1.06,1.094116,1.1236
10:18:32,30-Sep-21,1.046,1.061,1.094116,1.125721
10:18:32,30-Sep-21,1.046,1.063,1.094116,1.129969
10:18:32,30-Sep-21,1.046,1.065,1.094116,1.134225
10:18:32,30-Sep-21,1.0705,1.066,1.14597025,1.136356
10:18:32,30-Sep-21,1.0755,1.067,1.15670025,1.138489
10:18:32,30-Sep-21,1.085,1.068,1.177225,1.140624
10:18:32,30-Sep-21,1.085,1.069,1.177225,1.142761
10:18:32,30-Sep-21,1.085,1.07,1.177225,1.1449
10:18:32,30-Sep-21,1.085,1.07,1.177225,1.1449
10:18:32,30-Sep-21,1.085,1.071,1.177225,1.147041
10:18:32,30-Sep-21,1.08,1.071,1.1664,1.147041
10:18:32,30-Sep-21,1.08,1.071,1.1664,1.147041
10:18:32,30-Sep-21,1.0655,1.071,1.13529025,1.147041
10:18:32,30-Sep-21,1.0605,1.071,1.12466025,1.147041
10:18:32,30-Sep-21,1.0605,1.071,1.12466025,1.147041
10:18:32,30-Sep-21,1.051,1.071,1.104601,1.147041
10:18:32,30-Sep-21,1.051,1.071,1.104601,1.147041
10:18:32,30-Sep-21,1.046,1.07,1.094116,1.1449
10:18:32,30-Sep-21,1.051,1.07,1.104601,1.1449
10:18:32,30-Sep-21,1.0555,1.07,1.11408025,1.1449
10:18:32,30-Sep-21,1.0555,1.069,1.11408025,1.142761
10:18:32,30-Sep-21,1.0755,1.069,1.15670025,1.142761
10:18:32,30-Sep-21,1.08,1.068,1.1664,1.140624
10:18:32,30-Sep-21,1.08,1.068,1.1664,1.140624
10:18:32,30-Sep-21,1.08,1.067,1.1664,1.138489
10:18:32,30-Sep-21,1.0755,1.067,1.15670025,1.138489
10:18:32,30-Sep-21,1.0755,1.066,1.15670025,1.136356
10:18:32,30-Sep-21,1.0705,1.066,1.14597025,1.136356
10:18:32,30-Sep-21,1.0555,1.066,1.11408025,1.136356
10:18:32,30-Sep-21,1.051,1.065,1.104601,1.134225
10:18:32,30-Sep-21,1.051,1.065,1.104601,1.134225
10:18:32,30-Sep-21,1.041,1.064,1.083681,1.132096
10:18:32,30-Sep-21,1.046,1.064,1.094116,1.132096
10:18:32,30-Sep-21,1.046,1.063,1.094116,1.129969
10:18:32,30-Sep-21,1.0605,1.063,1.12466025,1.129969
10:18:32,30-Sep-21,1.0605,1.062,1.12466025,1.127844
10:18:32,30-Sep-21,1.0705,1.062,1.14597025,1.127844
10:18:32,30-Sep-21,1.0705,1.061,1.14597025,1.125721
10:18:32,30-Sep-21,1.0755,1.061,1.15670025,1.125721
10:18:32,30-Sep-21,1.0755,1.06,1.15670025,1.1236
10:18:32,30-Sep-21,1.08,1.06,1.1664,1.1236
10:18:32,30-Sep-21,1.08,1.059,1.1664,1.121481
10:18:32,30-Sep-21,1.08,1.059,1.1664,1.121481
10:18:32,30-Sep-21,1.0705,1.058,1.14597025,1.119364
10:18:32,30-Sep-21,1.0705,1.057,1.14597025,1.117249
10:18:32,30-Sep-21,1.0605,1.057,1.12466025,1.117249
10:18:32,30-Sep-21,1.046,1.056,1.094116,1.115136
10:18:32,30-Sep-21,1.046,1.055,1.094116,1.113025
10:18:32,30-Sep-21,1.046,1.055,1.094116,1.113025
10:18:32,30-Sep-21,1.041,1.054,1.083681,1.110916
10:18:32,30-Sep-21,1.036,1.053,1.073296,1.108809
10:18:32,30-Sep-21,1.041,1.052,1.083681,1.106704
10:18:32,30-Sep-21,1.041,1.052,1.083681,1.106704
10:18:32,30-Sep-21,1.041,1.051,1.083681,1.104601
10:18:32,30-Sep-21,1.041,1.05,1.083681,1.1025
10:18:32,30-Sep-21,1.0605,1.049,1.12466025,1.100401
10:18:32,30-Sep-21,1.0605,1.049,1.12466025,1.100401
10:18:32,30-Sep-21,1.0605,1.048,1.12466025,1.098304
10:18:32,30-Sep-21,1.0605,1.047,1.12466025,1.096209
10:18:32,30-Sep-21,1.0605,1.046,1.12466025,1.094116
10:18:32,30-Sep-21,1.0555,1.046,1.11408025,1.094116
10:18:32,30-Sep-21,1.0555,1.045,1.11408025,1.092025
10:18:33,30-Sep-21,1.041,1.044,1.083681,1.089936
10:18:33,30-Sep-21,1.041,1.044,1.083681,1.089936
10:18:33,30-Sep-21,1.041,1.043,1.083681,1.087849
10:18:33,30-Sep-21,1.0215,1.042,1.04346225,1.085764
10:18:33,30-Sep-21,1.0215,1.042,1.04346225,1.085764
10:18:33,30-Sep-21,1.0215,1.041,1.04346225,1.083681
10:18:33,30-Sep-21,1.0215,1.04,1.04346225,1.0816
10:18:33,30-Sep-21,1.0215,1.04,1.04346225,1.0816
10:18:33,30-Sep-21,1.0215,1.039,1.04346225,1.079521
10:18:33,30-Sep-21,1.036,1.039,1.073296,1.079521
10:18:33,30-Sep-21,1.036,1.038,1.073296,1.077444
10:18:33,30-Sep-21,1.036,1.037,1.073296,1.075369
10:18:33,30-Sep-21,1.046,1.037,1.094116,1.075369
10:18:33,30-Sep-21,1.046,1.036,1.094116,1.073296
10:18:33,30-Sep-21,1.046,1.035,1.094116,1.071225
10:18:33,30-Sep-21,1.0555,1.035,1.11408025,1.071225
10:18:33,30-Sep-21,1.0555,1.034,1.11408025,1.069156
10:18:33,30-Sep-21,1.0555,1.033,1.11408025,1.067089
10:18:33,30-Sep-21,1.0555,1.033,1.11408025,1.067089
10:18:33,30-Sep-21,1.046,1.032,1.094116,1.065024
10:18:33,30-Sep-21,1.046,1.031,1.094116,1.062961
10:18:33,30-Sep-21,1.046,1.031,1.094116,1.062961
10:18:33,30-Sep-21,1.041,1.03,1.083681,1.0609
10:18:33,30-Sep-21,1.041,1.029,1.083681,1.058841
10:18:33,30-Sep-21,1.0215,1.029,1.04346225,1.058841
10:18:33,30-Sep-21,1.0115,1.028,1.02313225,1.056784
10:18:33,30-Sep-21,1.0115,1.027,1.02313225,1.054729
10:18:33,30-Sep-21,1.007,1.027,1.014049,1.054729
10:18:33,30-Sep-21,1.007,1.026,1.014049,1.052676
10:18:33,30-Sep-21,1.007,1.026,1.014049,1.052676
10:18:33,30-Sep-21,1.007,1.025,1.014049,1.050625
10:18:33,30-Sep-21,1.007,1.025,1.014049,1.050625
10:18:33,30-Sep-21,1.007,1.024,1.014049,1.048576
10:18:33,30-Sep-21,1.007,1.024,1.014049,1.048576
10:18:33,30-Sep-21,1.007,1.024,1.014049,1.048576
10:18:33,30-Sep-21,1.0315,1.023,1.06399225,1.046529
10:18:33,30-Sep-21,1.0315,1.023,1.06399225,1.046529
10:18:33,30-Sep-21,1.036,1.023,1.073296,1.046529
10:18:33,30-Sep-21,1.036,1.023,1.073296,1.046529
10:18:33,30-Sep-21,1.041,1.023,1.083681,1.046529
10:18:33,30-Sep-21,1.041,1.023,1.083681,1.046529
10:18:33,30-Sep-21,1.041,1.023,1.083681,1.046529
10:18:33,30-Sep-21,1.041,1.023,1.083681,1.046529
10:18:33,30-Sep-21,1.0315,1.023,1.06399225,1.046529
10:18:33,30-Sep-21,1.0315,1.024,1.06399225,1.048576
10:18:33,30-Sep-21,1.0265,1.024,1.05370225,1.048576
10:18:33,30-Sep-21,1.0265,1.024,1.05370225,1.048576
10:18:33,30-Sep-21,1.0265,1.024,1.05370225,1.048576
10:18:33,30-Sep-21,1.0265,1.025,1.05370225,1.050625
10:18:33,30-Sep-21,1.0265,1.025,1.05370225,1.050625
10:18:33,30-Sep-21,1.0115,1.026,1.02313225,1.052676
10:18:33,30-Sep-21,1.0115,1.026,1.02313225,1.052676
10:18:33,30-Sep-21,1.0115,1.027,1.02313225,1.054729
10:18:33,30-Sep-21,1.0115,1.028,1.02313225,1.056784
10:18:33,30-Sep-21,1.0115,1.028,1.02313225,1.056784
10:18:33,30-Sep-21,1.0115,1.029,1.02313225,1.058841
10:18:33,30-Sep-21,1.0115,1.03,1.02313225,1.0609
10:18:33,30-Sep-21,1.0115,1.031,1.02313225,1.062961
10:18:33,30-Sep-21,1.0215,1.031,1.04346225,1.062961
10:18:33,30-Sep-21,1.0215,1.032,1.04346225,1.065024
10:18:33,30-Sep-21,1.0315,1.033,1.06399225,1.067089
10:18:33,30-Sep-21,1.0315,1.034,1.06399225,1.069156
10:18:33,30-Sep-21,1.0555,1.035,1.11408025,1.071225
10:18:33,30-Sep-21,1.0555,1.035,1.11408025,1.071225
10:18:33,30-Sep-21,1.0555,1.036,1.11408025,1.073296
10:18:33,30-Sep-21,1.0605,1.037,1.12466025,1.075369
10:18:33,30-Sep-21,1.0605,1.038,1.12466025,1.077444
10:18:33,30-Sep-21,1.0555,1.038,1.11408025,1.077444
10:18:33,30-Sep-21,1.0555,1.039,1.11408025,1.079521
10:18:33,30-Sep-21,1.051,1.04,1.104601,1.0816
10:18:33,30-Sep-21,1.051,1.04,1.104601,1.0816
10:18:33,30-Sep-21,1.051,1.041,1.104601,1.083681
10:18:33,30-Sep-21,1.0315,1.041,1.06399225,1.083681
10:18:33,30-Sep-21,1.0315,1.042,1.06399225,1.085764
10:18:33,30-Sep-21,1.0265,1.042,1.05370225,1.085764
10:18:33,30-Sep-21,1.0265,1.042,1.05370225,1.085764
10:18:33,30-Sep-21,1.0215,1.043,1.04346225,1.087849
10:18:33,30-Sep-21,1.0215,1.043,1.04346225,1.087849
10:18:33,30-Sep-21,1.036,1.043,1.073296,1.087849
10:18:33,30-Sep-21,1.036,1.044,1.073296,1.089936
10:18:33,30-Sep-21,1.046,1.044,1.094116,1.089936
10:18:33,30-Sep-21,1.046,1.044,1.094116,1.089936
10:18:33,30-Sep-21,1.0555,1.044,1.11408025,1.089936
10:18:33,30-Sep-21,1.0555,1.044,1.11408025,1.089936
10:18:33,30-Sep-21,1.0605,1.044,1.12466025,1.089936
10:18:33,30-Sep-21,1.0605,1.044,1.12466025,1.089936
10:18:33,30-Sep-21,1.0555,1.044,1.11408025,1.089936
10:18:33,30-Sep-21,1.0555,1.044,1.11408025,1.089936
10:18:33,30-Sep-21,1.046,1.044,1.094116,1.089936
10:18:33,30-Sep-21,1.046,1.045,1.094116,1.092025
10:18:33,30-Sep-21,1.046,1.045,1.094116,1.092025
10:18:33,30-Sep-21,1.046,1.045,1.094116,1.092025
10:18:33,30-Sep-21,1.046,1.045,1.094116,1.092025
10:18:33,30-Sep-21,1.041,1.045,1.083681,1.092025
10:18:33,30-Sep-21,1.041,1.045,1.083681,1.092025
10:18:33,30-Sep-21,1.0265,1.045,1.05370225,1.092025
10:18:33,30-Sep-21,1.0265,1.045,1.05370225,1.092025
10:18:33,30-Sep-21,1.0265,1.045,1.05370225,1.092025
10:18:33,30-Sep-21,1.0265,1.045,1.05370225,1.092025
10:18:33,30-Sep-21,1.0265,1.045,1.05370225,1.092025
10:18:33,30-Sep-21,1.0265,1.045,1.05370225,1.092025
10:18:33,30-Sep-21,1.0265,1.045,1.05370225,1.092025
10:18:33,30-Sep-21,1.0265,1.045,1.05370225,1.092025
10:18:33,30-Sep-21,1.0555,1.045,1.11408025,1.092025
10:18:33,30-Sep-21,1.0555,1.045,1.11408025,1.092025
10:18:33,30-Sep-21,1.0605,1.045,1.12466025,1.092025
10:18:33,30-Sep-21,1.0605,1.045,1.12466025,1.092025
10:18:33,30-Sep-21,1.0605,1.045,1.12466025,1.092025
10:18:33,30-Sep-21,1.0605,1.045,1.12466025,1.092025
10:18:33,30-Sep-21,1.0605,1.045,1.12466025,1.092025
10:18:33,30-Sep-21,1.0555,1.044,1.11408025,1.089936
10:18:33,30-Sep-21,1.0555,1.044,1.11408025,1.089936
10:18:33,30-Sep-21,1.041,1.044,1.083681,1.089936
10:18:33,30-Sep-21,1.041,1.043,1.083681,1.087849
10:18:34,30-Sep-21,1.041,1.043,1.083681,1.087849
10:18:34,30-Sep-21,1.0215,1.042,1.04346225,1.085764
10:18:34,30-Sep-21,1.0215,1.041,1.04346225,1.083681
10:18:34,30-Sep-21,1.036,1.041,1.073296,1.083681
10:18:34,30-Sep-21,1.041,1.04,1.083681,1.0816
10:18:34,30-Sep-21,1.041,1.039,1.083681,1.079521
10:18:34,30-Sep-21,1.051,1.038,1.104601,1.077444
10:18:34,30-Sep-21,1.051,1.037,1.104601,1.075369
10:18:34,30-Sep-21,1.051,1.036,1.104601,1.073296
10:18:34,30-Sep-21,1.051,1.035,1.104601,1.071225
10:18:34,30-Sep-21,1.051,1.033,1.104601,1.067089
10:18:34,30-Sep-21,1.051,1.032,1.104601,1.065024
10:18:34,30-Sep-21,1.036,1.031,1.073296,1.062961
10:18:34,30-Sep-21,1.036,1.03,1.073296,1.0609
10:18:34,30-Sep-21,1.0315,1.028,1.06399225,1.056784
10:18:34,30-Sep-21,1.0315,1.027,1.06399225,1.054729
10:18:34,30-Sep-21,1.0115,1.025,1.02313225,1.050625
10:18:34,30-Sep-21,1.0115,1.024,1.02313225,1.048576
10:18:34,30-Sep-21,1.007,1.023,1.014049,1.046529
10:18:34,30-Sep-21,0.997,1.021,0.994009,1.042441
10:18:34,30-Sep-21,0.997,1.02,0.994009,1.0404
10:18:34,30-Sep-21,0.997,1.019,0.994009,1.038361
10:18:34,30-Sep-21,0.997,1.018,0.994009,1.036324
10:18:34,30-Sep-21,0.997,1.016,0.994009,1.032256
10:18:34,30-Sep-21,0.997,1.015,0.994009,1.030225
10:18:34,30-Sep-21,1.0215,1.014,1.04346225,1.028196
10:18:34,30-Sep-21,1.0215,1.013,1.04346225,1.026169
10:18:34,30-Sep-21,1.0215,1.012,1.04346225,1.024144
10:18:34,30-Sep-21,1.0215,1.011,1.04346225,1.022121
10:18:34,30-Sep-21,1.0215,1.01,1.04346225,1.0201
10:18:34,30-Sep-21,1.0215,1.009,1.04346225,1.018081
10:18:34,30-Sep-21,1.0215,1.008,1.04346225,1.016064
10:18:34,30-Sep-21,1.0215,1.007,1.04346225,1.014049
10:18:34,30-Sep-21,1.0215,1.006,1.04346225,1.012036
10:18:34,30-Sep-21,1.0165,1.005,1.03327225,1.010025
10:18:34,30-Sep-21,1.0165,1.004,1.03327225,1.008016
10:18:34,30-Sep-21,1.0165,1.003,1.03327225,1.006009
10:18:34,30-Sep-21,1.007,1.003,1.014049,1.006009
10:18:34,30-Sep-21,0.997,1.002,0.994009,1.004004
10:18:34,30-Sep-21,0.997,1.001,0.994009,1.002001
10:18:34,30-Sep-21,0.997,1.001,0.994009,1.002001
10:18:34,30-Sep-21,0.9825,1,0.96530625,1
10:18:34,30-Sep-21,0.9825,0.999,0.96530625,0.998001
10:18:34,30-Sep-21,0.9775,0.999,0.95550625,0.998001
10:18:34,30-Sep-21,0.9775,0.998,0.95550625,0.996004
10:18:34,30-Sep-21,0.9775,0.998,0.95550625,0.996004
10:18:34,30-Sep-21,0.9825,0.997,0.96530625,0.994009
10:18:34,30-Sep-21,0.9825,0.997,0.96530625,0.994009
10:18:34,30-Sep-21,0.992,0.997,0.984064,0.994009
10:18:34,30-Sep-21,0.992,0.996,0.984064,0.992016
10:18:34,30-Sep-21,0.992,0.996,0.984064,0.992016
10:18:34,30-Sep-21,1.0115,0.995,1.02313225,0.990025
10:18:34,30-Sep-21,1.0115,0.995,1.02313225,0.990025
10:18:34,30-Sep-21,1.0115,0.994,1.02313225,0.988036
10:18:34,30-Sep-21,1.007,0.994,1.014049,0.988036
10:18:34,30-Sep-21,1.007,0.993,1.014049,0.986049
10:18:34,30-Sep-21,1.007,0.993,1.014049,0.986049
10:18:34,30-Sep-21,1.007,0.992,1.014049,0.984064
10:18:34,30-Sep-21,1.007,0.991,1.014049,0.982081
10:18:34,30-Sep-21,0.9825,0.991,0.96530625,0.982081
10:18:34,30-Sep-21,0.9825,0.99,0.96530625,0.9801
10:18:34,30-Sep-21,0.9825,0.989,0.96530625,0.978121
10:18:34,30-Sep-21,0.9725,0.988,0.94575625,0.976144
10:18:34,30-Sep-21,0.9725,0.987,0.94575625,0.974169
10:18:34,30-Sep-21,0.9725,0.986,0.94575625,0.972196
10:18:34,30-Sep-21,0.9725,0.985,0.94575625,0.970225
10:18:34,30-Sep-21,0.9725,0.984,0.94575625,0.968256
10:18:34,30-Sep-21,0.9725,0.983,0.94575625,0.966289
10:18:34,30-Sep-21,0.992,0.981,0.984064,0.962361
10:18:34,30-Sep-21,0.997,0.98,0.994009,0.9604
10:18:34,30-Sep-21,0.997,0.979,0.994009,0.958441
10:18:34,30-Sep-21,1.002,0.977,1.004004,0.954529
10:18:34,30-Sep-21,1.002,0.976,1.004004,0.952576
10:18:34,30-Sep-21,0.992,0.974,0.984064,0.948676
10:18:34,30-Sep-21,0.992,0.973,0.984064,0.946729
10:18:34,30-Sep-21,0.992,0.971,0.984064,0.942841
10:18:34,30-Sep-21,0.963,0.969,0.927369,0.938961
10:18:34,30-Sep-21,0.963,0.968,0.927369,0.937024
10:18:34,30-Sep-21,0.953,0.966,0.908209,0.933156
10:18:34,30-Sep-21,0.953,0.965,0.908209,0.931225
10:18:34,30-Sep-21,0.953,0.963,0.908209,0.927369
10:18:34,30-Sep-21,0.9435,0.962,0.89019225,0.925444
10:18:34,30-Sep-21,0.9435,0.96,0.89019225,0.9216
10:18:34,30-Sep-21,0.948,0.959,0.898704,0.919681
10:18:34,30-Sep-21,0.948,0.958,0.898704,0.917764
10:18:34,30-Sep-21,0.9675,0.956,0.93605625,0.913936
10:18:34,30-Sep-21,0.9675,0.955,0.93605625,0.912025
10:18:34,30-Sep-21,0.9675,0.954,0.93605625,0.910116
10:18:34,30-Sep-21,0.9675,0.954,0.93605625,0.910116
10:18:34,30-Sep-21,0.963,0.953,0.927369,0.908209
10:18:34,30-Sep-21,0.963,0.952,0.927369,0.906304
10:18:34,30-Sep-21,0.953,0.952,0.908209,0.906304
10:18:34,30-Sep-21,0.953,0.951,0.908209,0.904401
10:18:34,30-Sep-21,0.9435,0.951,0.89019225,0.904401
10:18:34,30-Sep-21,0.9435,0.951,0.89019225,0.904401
10:18:34,30-Sep-21,0.9435,0.951,0.89019225,0.904401
10:18:34,30-Sep-21,0.9385,0.952,0.88078225,0.906304
10:18:35,30-Sep-21,0.9385,0.952,0.88078225,0.906304
10:18:35,30-Sep-21,0.9335,0.953,0.87142225,0.908209
10:18:35,30-Sep-21,0.9335,0.954,0.87142225,0.910116
10:18:35,30-Sep-21,0.9335,0.954,0.87142225,0.910116
10:18:35,30-Sep-21,0.9335,0.956,0.87142225,0.913936
10:18:35,30-Sep-21,0.9335,0.957,0.87142225,0.915849
10:18:35,30-Sep-21,0.948,0.958,0.898704,0.917764
10:18:35,30-Sep-21,0.948,0.959,0.898704,0.919681
10:18:35,30-Sep-21,0.958,0.961,0.917764,0.923521
10:18:35,30-Sep-21,0.9775,0.962,0.95550625,0.925444
10:18:35,30-Sep-21,0.9775,0.964,0.95550625,0.929296
10:18:35,30-Sep-21,0.9775,0.966,0.95550625,0.933156
10:18:35,30-Sep-21,0.9775,0.967,0.95550625,0.935089
10:18:35,30-Sep-21,0.9875,0.969,0.97515625,0.938961
10:18:35,30-Sep-21,0.9825,0.971,0.96530625,0.942841
10:18:35,30-Sep-21,0.9825,0.972,0.96530625,0.944784
10:18:35,30-Sep-21,0.9875,0.974,0.97515625,0.948676
10:18:35,30-Sep-21,0.9875,0.975,0.97515625,0.950625
10:18:35,30-Sep-21,0.9875,0.977,0.97515625,0.954529
10:18:35,30-Sep-21,0.9775,0.978,0.95550625,0.956484
10:18:35,30-Sep-21,0.9775,0.98,0.95550625,0.9604
10:18:35,30-Sep-21,0.9775,0.981,0.95550625,0.962361
10:18:35,30-Sep-21,0.9775,0.982,0.95550625,0.964324
10:18:35,30-Sep-21,0.9775,0.983,0.95550625,0.966289
10:18:35,30-Sep-21,0.9725,0.984,0.94575625,0.968256
10:18:35,30-Sep-21,0.9725,0.985,0.94575625,0.970225
10:18:35,30-Sep-21,0.9775,0.986,0.95550625,0.972196
10:18:35,30-Sep-21,0.997,0.986,0.994009,0.972196
10:18:35,30-Sep-21,0.997,0.987,0.994009,0.974169
10:18:35,30-Sep-21,0.997,0.987,0.994009,0.974169
10:18:35,30-Sep-21,1.007,0.987,1.014049,0.974169
10:18:35,30-Sep-21,1.007,0.988,1.014049,0.976144
10:18:35,30-Sep-21,1.007,0.988,1.014049,0.976144
10:18:35,30-Sep-21,1.007,0.987,1.014049,0.974169
10:18:35,30-Sep-21,1.007,0.987,1.014049,0.974169
10:18:35,30-Sep-21,0.997,0.987,0.994009,0.974169
10:18:35,30-Sep-21,0.9825,0.987,0.96530625,0.974169
10:18:35,30-Sep-21,0.9825,0.986,0.96530625,0.972196
10:18:35,30-Sep-21,0.9775,0.986,0.95550625,0.972196
10:18:35,30-Sep-21,0.963,0.985,0.927369,0.970225
10:18:35,30-Sep-21,0.963,0.984,0.927369,0.968256
10:18:35,30-Sep-21,0.963,0.983,0.927369,0.966289
10:18:35,30-Sep-21,0.958,0.983,0.917764,0.966289
10:18:35,30-Sep-21,0.963,0.982,0.927369,0.964324
10:18:35,30-Sep-21,0.9675,0.981,0.93605625,0.962361
10:18:35,30-Sep-21,0.9675,0.98,0.93605625,0.9604
10:18:35,30-Sep-21,0.9825,0.979,0.96530625,0.958441
10:18:35,30-Sep-21,0.9825,0.978,0.96530625,0.956484
10:18:35,30-Sep-21,0.9825,0.978,0.96530625,0.956484
10:18:35,30-Sep-21,0.9825,0.977,0.96530625,0.954529
10:18:35,30-Sep-21,0.9825,0.976,0.96530625,0.952576
10:18:35,30-Sep-21,0.9825,0.975,0.96530625,0.950625
10:18:35,30-Sep-21,0.9825,0.974,0.96530625,0.948676
10:18:35,30-Sep-21,0.9825,0.973,0.96530625,0.946729
10:18:35,30-Sep-21,0.9775,0.972,0.95550625,0.944784
10:18:35,30-Sep-21,0.9775,0.971,0.95550625,0.942841
10:18:35,30-Sep-21,0.963,0.97,0.927369,0.9409
10:18:35,30-Sep-21,0.963,0.969,0.927369,0.938961
10:18:35,30-Sep-21,0.963,0.968,0.927369,0.937024
10:18:35,30-Sep-21,0.963,0.967,0.927369,0.935089
10:18:35,30-Sep-21,0.963,0.966,0.927369,0.933156
10:18:35,30-Sep-21,0.948,0.965,0.898704,0.931225
10:18:35,30-Sep-21,0.948,0.964,0.898704,0.929296
10:18:35,30-Sep-21,0.948,0.963,0.898704,0.927369
10:18:35,30-Sep-21,0.963,0.962,0.927369,0.925444
10:18:35,30-Sep-21,0.963,0.961,0.927369,0.923521
10:18:35,30-Sep-21,0.9675,0.96,0.93605625,0.9216
10:18:35,30-Sep-21,0.9675,0.96,0.93605625,0.9216
10:18:35,30-Sep-21,0.9675,0.959,0.93605625,0.919681
10:18:35,30-Sep-21,0.9675,0.958,0.93605625,0.917764
10:18:35,30-Sep-21,0.9675,0.957,0.93605625,0.915849
10:18:35,30-Sep-21,0.9725,0.956,0.94575625,0.913936
10:18:35,30-Sep-21,0.9725,0.955,0.94575625,0.912025
10:18:35,30-Sep-21,0.9725,0.955,0.94575625,0.912025
10:18:35,30-Sep-21,0.9725,0.954,0.94575625,0.910116
10:18:35,30-Sep-21,0.9725,0.954,0.94575625,0.910116
10:18:35,30-Sep-21,0.958,0.953,0.917764,0.908209
10:18:35,30-Sep-21,0.958,0.953,0.917764,0.908209
10:18:35,30-Sep-21,0.958,0.952,0.917764,0.906304
10:18:35,30-Sep-21,0.953,0.952,0.908209,0.906304
10:18:35,30-Sep-21,0.953,0.952,0.908209,0.906304
10:18:35,30-Sep-21,0.9385,0.952,0.88078225,0.906304
10:18:35,30-Sep-21,0.9335,0.952,0.87142225,0.906304
10:18:35,30-Sep-21,0.9335,0.953,0.87142225,0.908209
10:18:35,30-Sep-21,0.9335,0.953,0.87142225,0.908209
10:18:35,30-Sep-21,0.9385,0.954,0.88078225,0.910116
10:18:35,30-Sep-21,0.948,0.955,0.898704,0.912025
10:18:35,30-Sep-21,0.948,0.956,0.898704,0.913936
10:18:35,30-Sep-21,0.948,0.957,0.898704,0.915849
10:18:35,30-Sep-21,0.963,0.958,0.927369,0.917764
10:18:35,30-Sep-21,0.9675,0.96,0.93605625,0.9216
10:18:35,30-Sep-21,0.9675,0.962,0.93605625,0.925444
10:18:35,30-Sep-21,0.9675,0.964,0.93605625,0.929296
10:18:35,30-Sep-21,0.9675,0.966,0.93605625,0.933156
10:18:35,30-Sep-21,0.963,0.968,0.927369,0.937024
10:18:35,30-Sep-21,0.963,0.97,0.927369,0.9409
10:18:35,30-Sep-21,0.963,0.973,0.927369,0.946729
10:18:35,30-Sep-21,0.963,0.976,0.927369,0.952576
10:18:35,30-Sep-21,0.958,0.979,0.917764,0.958441
10:18:36,30-Sep-21,0.9675,0.982,0.93605625,0.964324
10:18:36,30-Sep-21,0.9675,0.985,0.93605625,0.970225
10:18:36,30-Sep-21,0.9775,0.988,0.95550625,0.976144
10:18:36,30-Sep-21,0.9775,0.992,0.95550625,0.984064
10:18:36,30-Sep-21,0.9775,0.995,0.95550625,0.990025
10:18:36,30-Sep-21,0.997,0.998,0.994009,0.996004
10:18:36,30-Sep-21,1.0165,1.002,1.03327225,1.004004
10:18:36,30-Sep-21,1.0165,1.005,1.03327225,1.010025
10:18:36,30-Sep-21,1.036,1.009,1.073296,1.018081
10:18:36,30-Sep-21,1.036,1.012,1.073296,1.024144
10:18:36,30-Sep-21,1.041,1.016,1.083681,1.032256
10:18:36,30-Sep-21,1.041,1.019,1.083681,1.038361
10:18:36,30-Sep-21,1.041,1.022,1.083681,1.044484
10:18:36,30-Sep-21,1.041,1.026,1.083681,1.052676
10:18:36,30-Sep-21,1.041,1.029,1.083681,1.058841
10:18:36,30-Sep-21,1.041,1.032,1.083681,1.065024
10:18:36,30-Sep-21,1.041,1.035,1.083681,1.071225
10:18:36,30-Sep-21,1.041,1.038,1.083681,1.077444
10:18:36,30-Sep-21,1.0265,1.041,1.05370225,1.083681
10:18:36,30-Sep-21,1.0315,1.043,1.06399225,1.087849
10:18:36,30-Sep-21,1.0315,1.046,1.06399225,1.094116
10:18:36,30-Sep-21,1.0315,1.048,1.06399225,1.098304
10:18:36,30-Sep-21,1.0315,1.051,1.06399225,1.104601
10:18:36,30-Sep-21,1.041,1.053,1.083681,1.108809
10:18:36,30-Sep-21,1.041,1.055,1.083681,1.113025
10:18:36,30-Sep-21,1.041,1.057,1.083681,1.117249
10:18:36,30-Sep-21,1.046,1.059,1.094116,1.121481
10:18:36,30-Sep-21,1.0755,1.06,1.15670025,1.1236
10:18:36,30-Sep-21,1.0755,1.062,1.15670025,1.127844
10:18:36,30-Sep-21,1.085,1.063,1.177225,1.129969
10:18:36,30-Sep-21,1.085,1.065,1.177225,1.134225
10:18:36,30-Sep-21,1.085,1.066,1.177225,1.136356
10:18:36,30-Sep-21,1.085,1.067,1.177225,1.138489
10:18:36,30-Sep-21,1.085,1.068,1.177225,1.140624
10:18:36,30-Sep-21,1.085,1.069,1.177225,1.142761
10:18:36,30-Sep-21,1.0705,1.069,1.14597025,1.142761
10:18:36,30-Sep-21,1.0655,1.07,1.13529025,1.1449
10:18:36,30-Sep-21,1.0605,1.07,1.12466025,1.1449
10:18:36,30-Sep-21,1.0605,1.071,1.12466025,1.147041
10:18:36,30-Sep-21,1.051,1.071,1.104601,1.147041
10:18:36,30-Sep-21,1.051,1.071,1.104601,1.147041
10:18:36,30-Sep-21,1.051,1.072,1.104601,1.149184
10:18:36,30-Sep-21,1.051,1.072,1.104601,1.149184
10:18:36,30-Sep-21,1.0605,1.072,1.12466025,1.149184
10:18:36,30-Sep-21,1.0705,1.072,1.14597025,1.149184
10:18:36,30-Sep-21,1.085,1.072,1.177225,1.149184
10:18:36,30-Sep-21,1.085,1.071,1.177225,1.147041
10:18:36,30-Sep-21,1.085,1.071,1.177225,1.147041
10:18:36,30-Sep-21,1.08,1.071,1.1664,1.147041
10:18:36,30-Sep-21,1.08,1.071,1.1664,1.147041
10:18:36,30-Sep-21,1.0755,1.07,1.15670025,1.1449
10:18:36,30-Sep-21,1.0705,1.07,1.14597025,1.1449
10:18:36,30-Sep-21,1.0705,1.069,1.14597025,1.142761
10:18:36,30-Sep-21,1.0555,1.069,1.11408025,1.142761
10:18:36,30-Sep-21,1.0555,1.068,1.11408025,1.140624
10:18:36,30-Sep-21,1.051,1.068,1.104601,1.140624
10:18:36,30-Sep-21,1.051,1.067,1.104601,1.138489
10:18:36,30-Sep-21,1.046,1.066,1.094116,1.136356
10:18:36,30-Sep-21,1.046,1.066,1.094116,1.136356
10:18:36,30-Sep-21,1.051,1.065,1.104601,1.134225
10:18:36,30-Sep-21,1.0705,1.064,1.14597025,1.132096
10:18:36,30-Sep-21,1.0705,1.063,1.14597025,1.129969
10:18:36,30-Sep-21,1.0755,1.062,1.15670025,1.127844
10:18:36,30-Sep-21,1.0755,1.061,1.15670025,1.125721
10:18:36,30-Sep-21,1.085,1.06,1.177225,1.1236
10:18:36,30-Sep-21,1.08,1.059,1.1664,1.121481
10:18:36,30-Sep-21,1.08,1.058,1.1664,1.119364
10:18:36,30-Sep-21,1.0755,1.056,1.15670025,1.115136
10:18:36,30-Sep-21,1.0555,1.055,1.11408025,1.113025
10:18:36,30-Sep-21,1.0555,1.054,1.11408025,1.110916
10:18:36,30-Sep-21,1.0555,1.052,1.11408025,1.106704
10:18:36,30-Sep-21,1.046,1.051,1.094116,1.104601
10:18:36,30-Sep-21,1.046,1.049,1.094116,1.100401
10:18:36,30-Sep-21,1.046,1.047,1.094116,1.096209
10:18:36,30-Sep-21,1.0315,1.046,1.06399225,1.094116
10:18:36,30-Sep-21,1.0315,1.044,1.06399225,1.089936
10:18:36,30-Sep-21,1.0265,1.042,1.05370225,1.085764
10:18:36,30-Sep-21,1.0265,1.04,1.05370225,1.0816
10:18:36,30-Sep-21,1.0265,1.038,1.05370225,1.077444
10:18:36,30-Sep-21,1.0265,1.036,1.05370225,1.073296
10:18:36,30-Sep-21,1.0315,1.034,1.06399225,1.069156
10:18:36,30-Sep-21,1.0315,1.032,1.06399225,1.065024
10:18:36,30-Sep-21,1.0315,1.03,1.06399225,1.0609
10:18:36,30-Sep-21,1.051,1.028,1.104601,1.056784
10:18:36,30-Sep-21,1.046,1.026,1.094116,1.052676
10:18:36,30-Sep-21,1.041,1.024,1.083681,1.048576
10:18:36,30-Sep-21,1.036,1.022,1.073296,1.044484
10:18:36,30-Sep-21,1.0265,1.02,1.05370225,1.0404
10:18:36,30-Sep-21,1.007,1.018,1.014049,1.036324
10:18:36,30-Sep-21,1.007,1.016,1.014049,1.032256
10:18:36,30-Sep-21,0.997,1.014,0.994009,1.028196
10:18:36,30-Sep-21,0.997,1.012,0.994009,1.024144
10:18:36,30-Sep-21,0.992,1.01,0.984064,1.0201
10:18:37,30-Sep-21,0.9875,1.008,0.97515625,1.016064
10:18:37,30-Sep-21,1.002,1.006,1.004004,1.012036
10:18:37,30-Sep-21,1.002,1.003,1.004004,1.006009
10:18:37,30-Sep-21,1.0115,1.001,1.02313225,1.002001
10:18:37,30-Sep-21,1.0115,0.999,1.02313225,0.998001
10:18:37,30-Sep-21,1.0165,0.997,1.03327225,0.994009
10:18:37,30-Sep-21,1.0115,0.996,1.02313225,0.992016
10:18:37,30-Sep-21,1.0115,0.994,1.02313225,0.988036
10:18:37,30-Sep-21,1.0115,0.992,1.02313225,0.984064
10:18:37,30-Sep-21,1.007,0.99,1.014049,0.9801
10:18:37,30-Sep-21,0.992,0.988,0.984064,0.976144
10:18:37,30-Sep-21,0.992,0.987,0.984064,0.974169
10:18:37,30-Sep-21,0.992,0.985,0.984064,0.970225
10:18:37,30-Sep-21,0.9825,0.984,0.96530625,0.968256
10:18:37,30-Sep-21,0.9825,0.982,0.96530625,0.964324
10:18:37,30-Sep-21,0.9675,0.981,0.93605625,0.962361
10:18:37,30-Sep-21,0.9675,0.98,0.93605625,0.9604
10:18:37,30-Sep-21,0.963,0.979,0.927369,0.958441
10:18:37,30-Sep-21,0.963,0.978,0.927369,0.956484
10:18:37,30-Sep-21,0.963,0.977,0.927369,0.954529
10:18:37,30-Sep-21,0.963,0.976,0.927369,0.952576
10:18:37,30-Sep-21,0.963,0.975,0.927369,0.950625
10:18:37,30-Sep-21,0.963,0.975,0.927369,0.950625
10:18:37,30-Sep-21,0.963,0.975,0.927369,0.950625
10:18:37,30-Sep-21,0.963,0.975,0.927369,0.950625
10:18:37,30-Sep-21,0.963,0.974,0.927369,0.948676
10:18:37,30-Sep-21,0.9825,0.975,0.96530625,0.950625
10:18:37,30-Sep-21,0.9825,0.975,0.96530625,0.950625
10:18:37,30-Sep-21,0.9875,0.975,0.97515625,0.950625
10:18:37,30-Sep-21,0.9875,0.975,0.97515625,0.950625
10:18:37,30-Sep-21,0.992,0.976,0.984064,0.952576
10:18:37,30-Sep-21,0.992,0.977,0.984064,0.954529
10:18:37,30-Sep-21,0.992,0.977,0.984064,0.954529
10:18:37,30-Sep-21,0.992,0.978,0.984064,0.956484
10:18:37,30-Sep-21,0.992,0.979,0.984064,0.958441
10:18:37,30-Sep-21,0.9875,0.98,0.97515625,0.9604
10:18:37,30-Sep-21,0.9875,0.981,0.97515625,0.962361
10:18:37,30-Sep-21,0.9775,0.982,0.95550625,0.964324
10:18:37,30-Sep-21,0.9775,0.984,0.95550625,0.968256
10:18:37,30-Sep-21,0.9725,0.985,0.94575625,0.970225
10:18:37,30-Sep-21,0.9725,0.986,0.94575625,0.972196
10:18:37,30-Sep-21,0.9675,0.988,0.93605625,0.976144
10:18:37,30-Sep-21,0.9675,0.989,0.93605625,0.978121
10:18:37,30-Sep-21,0.9675,0.99,0.93605625,0.9801
10:18:37,30-Sep-21,0.9675,0.992,0.93605625,0.984064
10:18:37,30-Sep-21,0.9775,0.994,0.95550625,0.988036
10:18:37,30-Sep-21,0.9775,0.995,0.95550625,0.990025
10:18:37,30-Sep-21,0.992,0.996,0.984064,0.992016
10:18:37,30-Sep-21,1.002,0.998,1.004004,0.996004
10:18:37,30-Sep-21,1.0165,0.999,1.03327225,0.998001
10:18:37,30-Sep-21,1.0165,1.001,1.03327225,1.002001
10:18:37,30-Sep-21,1.0165,1.002,1.03327225,1.004004
10:18:37,30-Sep-21,1.0165,1.003,1.03327225,1.006009
10:18:37,30-Sep-21,1.0165,1.004,1.03327225,1.008016
10:18:37,30-Sep-21,1.0165,1.005,1.03327225,1.010025
10:18:37,30-Sep-21,1.0165,1.006,1.03327225,1.012036
10:18:37,30-Sep-21,1.002,1.007,1.004004,1.014049
10:18:37,30-Sep-21,1.002,1.008,1.004004,1.016064
10:18:37,30-Sep-21,1.002,1.008,1.004004,1.016064
10:18:37,30-Sep-21,1.002,1.008,1.004004,1.016064
10:18:37,30-Sep-21,0.997,1.009,0.994009,1.018081
10:18:37,30-Sep-21,1.002,1.009,1.004004,1.018081
10:18:37,30-Sep-21,1.007,1.009,1.014049,1.018081
10:18:37,30-Sep-21,1.007,1.008,1.014049,1.016064
10:18:37,30-Sep-21,1.0265,1.008,1.05370225,1.016064
10:18:37,30-Sep-21,1.0315,1.008,1.06399225,1.016064
10:18:37,30-Sep-21,1.0315,1.007,1.06399225,1.014049
10:18:37,30-Sep-21,1.036,1.006,1.073296,1.012036
10:18:37,30-Sep-21,1.036,1.005,1.073296,1.010025
10:18:37,30-Sep-21,1.0315,1.005,1.06399225,1.010025
10:18:37,30-Sep-21,1.0115,1.003,1.02313225,1.006009
10:18:37,30-Sep-21,1.007,1.002,1.014049,1.004004
10:18:37,30-Sep-21,1.007,1.001,1.014049,1.002001
10:18:37,30-Sep-21,1.007,1,1.014049,1
10:18:37,30-Sep-21,0.992,0.999,0.984064,0.998001
10:18:37,30-Sep-21,0.9825,0.998,0.96530625,0.996004
10:18:37,30-Sep-21,0.9825,0.997,0.96530625,0.994009
10:18:37,30-Sep-21,0.9775,0.996,0.95550625,0.992016
10:18:37,30-Sep-21,0.9825,0.995,0.96530625,0.990025
10:18:37,30-Sep-21,0.9875,0.994,0.97515625,0.988036
10:18:37,30-Sep-21,0.9875,0.993,0.97515625,0.986049
10:18:37,30-Sep-21,0.997,0.993,0.994009,0.986049
10:18:37,30-Sep-21,0.997,0.992,0.994009,0.984064
10:18:37,30-Sep-21,0.997,0.992,0.994009,0.984064
10:18:37,30-Sep-21,0.997,0.992,0.994009,0.984064
10:18:37,30-Sep-21,0.997,0.992,0.994009,0.984064
10:18:37,30-Sep-21,0.9875,0.992,0.97515625,0.984064
10:18:37,30-Sep-21,0.9775,0.993,0.95550625,0.986049
10:18:37,30-Sep-21,0.9775,0.994,0.95550625,0.988036
10:18:37,30-Sep-21,0.9775,0.994,0.95550625,0.988036
10:18:37,30-Sep-21,0.9725,0.996,0.94575625,0.992016
10:18:37,30-Sep-21,0.9675,0.997,0.93605625,0.994009
10:18:37,30-Sep-21,0.963,0.999,0.927369,0.998001
10:18:37,30-Sep-21,0.963,1,0.927369,1
10:18:37,30-Sep-21,0.963,1.002,0.927369,1.004004
10:18:38,30-Sep-21,0.997,1.004,0.994009,1.008016
10:18:38,30-Sep-21,0.997,1.007,0.994009,1.014049
10:18:38,30-Sep-21,1.0165,1.009,1.03327225,1.018081
10:18:38,30-Sep-21,1.0165,1.012,1.03327225,1.024144
10:18:38,30-Sep-21,1.0315,1.014,1.06399225,1.028196
10:18:38,30-Sep-21,1.041,1.017,1.083681,1.034289
10:18:38,30-Sep-21,1.036,1.02,1.073296,1.0404
10:18:38,30-Sep-21,1.036,1.022,1.073296,1.044484
10:18:38,30-Sep-21,1.041,1.025,1.083681,1.050625
10:18:38,30-Sep-21,1.041,1.028,1.083681,1.056784
10:18:38,30-Sep-21,1.041,1.031,1.083681,1.062961
10:18:38,30-Sep-21,1.0315,1.033,1.06399225,1.067089
10:18:38,30-Sep-21,1.0315,1.036,1.06399225,1.073296
10:18:38,30-Sep-21,1.0315,1.039,1.06399225,1.079521
10:18:38,30-Sep-21,1.036,1.041,1.073296,1.083681
10:18:38,30-Sep-21,1.036,1.044,1.073296,1.089936
10:18:38,30-Sep-21,1.036,1.046,1.073296,1.094116
10:18:38,30-Sep-21,1.046,1.048,1.094116,1.098304
10:18:38,30-Sep-21,1.0755,1.05,1.15670025,1.1025
10:18:38,30-Sep-21,1.085,1.052,1.177225,1.106704
10:18:38,30-Sep-21,1.085,1.054,1.177225,1.110916
10:18:38,30-Sep-21,1.085,1.055,1.177225,1.113025
10:18:38,30-Sep-21,1.085,1.057,1.177225,1.117249
10:18:38,30-Sep-21,1.085,1.059,1.177225,1.121481
10:18:38,30-Sep-21,1.085,1.06,1.177225,1.1236
10:18:38,30-Sep-21,1.0705,1.061,1.14597025,1.125721
10:18:38,30-Sep-21,1.0705,1.062,1.14597025,1.127844
10:18:38,30-Sep-21,1.0705,1.064,1.14597025,1.132096
10:18:38,30-Sep-21,1.0705,1.065,1.14597025,1.134225
10:18:38,30-Sep-21,1.051,1.066,1.104601,1.136356
10:18:38,30-Sep-21,1.036,1.067,1.073296,1.138489
10:18:38,30-Sep-21,1.041,1.069,1.083681,1.142761
10:18:38,30-Sep-21,1.046,1.07,1.094116,1.1449
10:18:38,30-Sep-21,1.046,1.071,1.094116,1.147041
10:18:38,30-Sep-21,1.0655,1.073,1.13529025,1.151329
10:18:38,30-Sep-21,1.0705,1.075,1.14597025,1.155625
10:18:38,30-Sep-21,1.0705,1.077,1.14597025,1.159929
10:18:38,30-Sep-21,1.08,1.079,1.1664,1.164241
10:18:38,30-Sep-21,1.085,1.081,1.177225,1.168561
10:18:38,30-Sep-21,1.085,1.083,1.177225,1.172889
10:18:38,30-Sep-21,1.0995,1.086,1.20890025,1.179396
10:18:38,30-Sep-21,1.09,1.089,1.1881,1.185921
10:18:38,30-Sep-21,1.09,1.092,1.1881,1.192464
10:18:38,30-Sep-21,1.09,1.096,1.1881,1.201216
10:18:38,30-Sep-21,1.09,1.1,1.1881,1.21
10:18:38,30-Sep-21,1.09,1.104,1.1881,1.218816
10:18:38,30-Sep-21,1.0995,1.108,1.20890025,1.227664
10:18:38,30-Sep-21,1.129,1.113,1.274641,1.238769
10:18:38,30-Sep-21,1.1435,1.118,1.30759225,1.249924
10:18:38,30-Sep-21,1.1435,1.123,1.30759225,1.261129
10:18:38,30-Sep-21,1.1485,1.129,1.31905225,1.274641
10:18:38,30-Sep-21,1.1585,1.135,1.34212225,1.288225
10:18:38,30-Sep-21,1.1585,1.142,1.34212225,1.304164
10:18:38,30-Sep-21,1.1585,1.148,1.34212225,1.317904
10:18:38,30-Sep-21,1.1485,1.155,1.31905225,1.334025
10:18:38,30-Sep-21,1.1485,1.163,1.31905225,1.352569
10:18:38,30-Sep-21,1.1485,1.171,1.31905225,1.371241
10:18:38,30-Sep-21,1.1485,1.179,1.31905225,1.390041
10:18:38,30-Sep-21,1.1485,1.187,1.31905225,1.408969
10:18:38,30-Sep-21,1.1585,1.196,1.34212225,1.430416
10:18:38,30-Sep-21,1.1585,1.205,1.34212225,1.452025
10:18:38,30-Sep-21,1.1585,1.214,1.34212225,1.473796
10:18:38,30-Sep-21,1.173,1.224,1.375929,1.498176
10:18:38,30-Sep-21,1.212,1.233,1.468944,1.520289
10:18:38,30-Sep-21,1.212,1.243,1.468944,1.545049
10:18:38,30-Sep-21,1.212,1.253,1.468944,1.570009
10:18:38,30-Sep-21,1.2855,1.263,1.65251025,1.595169
10:18:38,30-Sep-21,1.2855,1.273,1.65251025,1.620529
10:18:38,30-Sep-21,1.3195,1.283,1.74108025,1.646089
10:18:38,30-Sep-21,1.3195,1.293,1.74108025,1.671849
10:18:38,30-Sep-21,1.344,1.303,1.806336,1.697809
10:18:38,30-Sep-21,1.344,1.313,1.806336,1.723969
10:18:38,30-Sep-21,1.3585,1.323,1.84552225,1.750329
10:18:38,30-Sep-21,1.3585,1.332,1.84552225,1.774224
10:18:38,30-Sep-21,1.3685,1.341,1.87279225,1.798281
10:18:38,30-Sep-21,1.3635,1.35,1.85913225,1.8225
10:18:38,30-Sep-21,1.3685,1.359,1.87279225,1.846881
10:18:38,30-Sep-21,1.3685,1.367,1.87279225,1.868689
10:18:38,30-Sep-21,1.3685,1.375,1.87279225,1.890625
10:18:38,30-Sep-21,1.3785,1.383,1.90026225,1.912689
10:18:38,30-Sep-21,1.3785,1.39,1.90026225,1.9321
10:18:38,30-Sep-21,1.393,1.397,1.940449,1.951609
10:18:38,30-Sep-21,1.393,1.404,1.940449,1.971216
10:18:38,30-Sep-21,1.427,1.41,2.036329,1.9881
10:18:39,30-Sep-21,1.427,1.416,2.036329,2.005056
10:18:39,30-Sep-21,1.4465,1.422,2.09236225,2.022084
10:18:39,30-Sep-21,1.4465,1.427,2.09236225,2.036329
10:18:39,30-Sep-21,1.4615,1.431,2.13598225,2.047761
10:18:39,30-Sep-21,1.4615,1.436,2.13598225,2.062096
10:18:39,30-Sep-21,1.4665,1.44,2.15062225,2.0736
10:18:39,30-Sep-21,1.4665,1.444,2.15062225,2.085136
10:18:39,30-Sep-21,1.4665,1.447,2.15062225,2.093809
10:18:39,30-Sep-21,1.4615,1.45,2.13598225,2.1025
10:18:39,30-Sep-21,1.4565,1.453,2.12139225,2.111209
10:18:39,30-Sep-21,1.4565,1.455,2.12139225,2.117025
10:18:39,30-Sep-21,1.442,1.458,2.079364,2.125764
10:18:39,30-Sep-21,1.442,1.46,2.079364,2.1316
10:18:39,30-Sep-21,1.442,1.462,2.079364,2.137444
10:18:39,30-Sep-21,1.442,1.464,2.079364,2.143296
10:18:39,30-Sep-21,1.442,1.466,2.079364,2.149156
10:18:39,30-Sep-21,1.442,1.467,2.079364,2.152089
10:18:39,30-Sep-21,1.442,1.469,2.079364,2.157961
10:18:39,30-Sep-21,1.4515,1.471,2.10685225,2.163841
10:18:39,30-Sep-21,1.4515,1.472,2.10685225,2.166784
10:18:39,30-Sep-21,1.4615,1.474,2.13598225,2.172676
10:18:39,30-Sep-21,1.4955,1.475,2.23652025,2.175625
10:18:39,30-Sep-21,1.4955,1.477,2.23652025,2.181529
10:18:39,30-Sep-21,1.5005,1.478,2.25150025,2.184484
10:18:39,30-Sep-21,1.4955,1.48,2.23652025,2.1904
10:18:39,30-Sep-21,1.4955,1.481,2.23652025,2.193361
10:18:39,30-Sep-21,1.4955,1.483,2.23652025,2.199289
10:18:39,30-Sep-21,1.476,1.484,2.178576,2.202256
10:18:39,30-Sep-21,1.476,1.486,2.178576,2.208196
10:18:39,30-Sep-21,1.471,1.488,2.163841,2.214144
10:18:39,30-Sep-21,1.471,1.489,2.163841,2.217121
10:18:39,30-Sep-21,1.4615,1.491,2.13598225,2.223081
10:18:39,30-Sep-21,1.4515,1.492,2.10685225,2.226064
10:18:39,30-Sep-21,1.4515,1.494,2.10685225,2.232036
10:18:39,30-Sep-21,1.4565,1.495,2.12139225,2.235025
10:18:39,30-Sep-21,1.481,1.496,2.193361,2.238016
10:18:39,30-Sep-21,1.481,1.497,2.193361,2.241009
10:18:39,30-Sep-21,1.4905,1.498,2.22159025,2.244004
10:18:39,30-Sep-21,1.5055,1.499,2.26653025,2.247001
10:18:39,30-Sep-21,1.5055,1.499,2.26653025,2.247001
10:18:39,30-Sep-21,1.5055,1.5,2.26653025,2.25
10:18:39,30-Sep-21,1.4905,1.499,2.22159025,2.247001
10:18:39,30-Sep-21,1.4905,1.499,2.22159025,2.247001
10:18:39,30-Sep-21,1.4905,1.498,2.22159025,2.244004
10:18:39,30-Sep-21,1.4615,1.496,2.13598225,2.238016
10:18:39,30-Sep-21,1.4565,1.495,2.12139225,2.235025
10:18:39,30-Sep-21,1.4565,1.492,2.12139225,2.226064
10:18:39,30-Sep-21,1.4515,1.489,2.10685225,2.217121
10:18:39,30-Sep-21,1.4565,1.485,2.12139225,2.205225
10:18:39,30-Sep-21,1.4565,1.481,2.12139225,2.193361
10:18:39,30-Sep-21,1.4615,1.476,2.13598225,2.178576
10:18:39,30-Sep-21,1.515,1.47,2.295225,2.1609
10:18:39,30-Sep-21,1.5345,1.464,2.35469025,2.143296
10:18:39,30-Sep-21,1.5495,1.457,2.40095025,2.122849
10:18:39,30-Sep-21,1.5495,1.449,2.40095025,2.099601
10:18:39,30-Sep-21,1.5495,1.44,2.40095025,2.0736
10:18:39,30-Sep-21,1.5345,1.431,2.35469025,2.047761
10:18:39,30-Sep-21,1.5055,1.421,2.26653025,2.019241
10:18:39,30-Sep-21,1.4565,1.41,2.12139225,1.9881
10:18:39,30-Sep-21,1.4565,1.399,2.12139225,1.957201
10:18:39,30-Sep-21,1.4565,1.387,2.12139225,1.923769
10:18:39,30-Sep-21,1.4025,1.375,1.96700625,1.890625
10:18:39,30-Sep-21,1.3735,1.362,1.88650225,1.855044
10:18:39,30-Sep-21,1.3735,1.349,1.88650225,1.819801
10:18:39,30-Sep-21,1.3295,1.336,1.76757025,1.784896
10:18:39,30-Sep-21,1.305,1.323,1.703025,1.750329
10:18:39,30-Sep-21,1.305,1.309,1.703025,1.713481
10:18:39,30-Sep-21,1.266,1.295,1.602756,1.677025
10:18:39,30-Sep-21,1.2365,1.282,1.52893225,1.643524
10:18:39,30-Sep-21,1.2365,1.268,1.52893225,1.607824
10:18:39,30-Sep-21,1.2025,1.255,1.44600625,1.575025
10:18:39,30-Sep-21,1.183,1.242,1.399489,1.542564
10:18:39,30-Sep-21,1.183,1.229,1.399489,1.510441
10:18:39,30-Sep-21,1.1485,1.217,1.31905225,1.481089
10:18:39,30-Sep-21,1.1485,1.205,1.31905225,1.452025
10:18:39,30-Sep-21,1.1485,1.194,1.31905225,1.425636
10:18:39,30-Sep-21,1.134,1.183,1.285956,1.399489
10:18:39,30-Sep-21,1.134,1.173,1.285956,1.375929
10:18:39,30-Sep-21,1.1195,1.164,1.25328025,1.354896
10:18:39,30-Sep-21,1.1195,1.155,1.25328025,1.334025
10:18:39,30-Sep-21,1.1145,1.147,1.24211025,1.315609
10:18:39,30-Sep-21,1.1145,1.139,1.24211025,1.297321
10:18:39,30-Sep-21,1.129,1.132,1.274641,1.281424
10:18:39,30-Sep-21,1.129,1.126,1.274641,1.267876
10:18:39,30-Sep-21,1.129,1.12,1.274641,1.2544
10:18:39,30-Sep-21,1.129,1.115,1.274641,1.243225
10:18:39,30-Sep-21,1.129,1.111,1.274641,1.234321
10:18:40,30-Sep-21,1.129,1.107,1.274641,1.225449
10:18:40,30-Sep-21,1.134,1.104,1.285956,1.218816
10:18:40,30-Sep-21,1.129,1.101,1.274641,1.212201
10:18:40,30-Sep-21,1.129,1.099,1.274641,1.207801
10:18:40,30-Sep-21,1.124,1.098,1.263376,1.205604
10:18:40,30-Sep-21,1.124,1.096,1.263376,1.201216
10:18:40,30-Sep-21,1.1095,1.096,1.23099025,1.201216
10:18:40,30-Sep-21,1.1095,1.095,1.23099025,1.199025
10:18:40,30-Sep-21,1.1095,1.095,1.23099025,1.199025
10:18:40,30-Sep-21,1.0995,1.096,1.20890025,1.201216
10:18:40,30-Sep-21,1.0995,1.096,1.20890025,1.201216
10:18:40,30-Sep-21,1.085,1.097,1.177225,1.203409
10:18:40,30-Sep-21,1.085,1.099,1.177225,1.207801
10:18:40,30-Sep-21,1.09,1.1,1.1881,1.21
10:18:40,30-Sep-21,1.09,1.102,1.1881,1.214404
10:18:40,30-Sep-21,1.095,1.104,1.199025,1.218816
10:18:40,30-Sep-21,1.095,1.106,1.199025,1.223236
10:18:40,30-Sep-21,1.095,1.108,1.199025,1.227664
10:18:40,30-Sep-21,1.1195,1.11,1.25328025,1.2321
10:18:40,30-Sep-21,1.1195,1.112,1.25328025,1.236544
10:18:40,30-Sep-21,1.1195,1.115,1.25328025,1.243225
10:18:40,30-Sep-21,1.1145,1.117,1.24211025,1.247689
10:18:40,30-Sep-21,1.1145,1.119,1.24211025,1.252161
10:18:40,30-Sep-21,1.1145,1.122,1.24211025,1.258884
10:18:40,30-Sep-21,1.1145,1.124,1.24211025,1.263376
10:18:40,30-Sep-21,1.1145,1.126,1.24211025,1.267876
10:18:40,30-Sep-21,1.1195,1.128,1.25328025,1.272384
10:18:40,30-Sep-21,1.129,1.129,1.274641,1.274641
10:18:40,30-Sep-21,1.129,1.131,1.274641,1.279161
10:18:40,30-Sep-21,1.129,1.132,1.274641,1.281424
10:18:40,30-Sep-21,1.134,1.134,1.285956,1.285956
10:18:40,30-Sep-21,1.1485,1.134,1.31905225,1.285956
10:18:40,30-Sep-21,1.1485,1.135,1.31905225,1.288225
10:18:40,30-Sep-21,1.1535,1.135,1.33056225,1.288225
10:18:40,30-Sep-21,1.1535,1.135,1.33056225,1.288225
10:18:40,30-Sep-21,1.1535,1.135,1.33056225,1.288225
10:18:40,30-Sep-21,1.1585,1.135,1.34212225,1.288225
10:18:40,30-Sep-21,1.1535,1.134,1.33056225,1.285956
10:18:40,30-Sep-21,1.1435,1.133,1.30759225,1.283689
10:18:40,30-Sep-21,1.1435,1.131,1.30759225,1.279161
10:18:40,30-Sep-21,1.134,1.13,1.285956,1.2769
10:18:40,30-Sep-21,1.134,1.128,1.285956,1.272384
10:18:40,30-Sep-21,1.1145,1.125,1.24211025,1.265625
10:18:40,30-Sep-21,1.1145,1.123,1.24211025,1.261129
10:18:40,30-Sep-21,1.1095,1.12,1.23099025,1.2544
10:18:40,30-Sep-21,1.1095,1.117,1.23099025,1.247689
10:18:40,30-Sep-21,1.1095,1.114,1.23099025,1.240996
10:18:40,30-Sep-21,1.1145,1.111,1.24211025,1.234321
10:18:40,30-Sep-21,1.1145,1.107,1.24211025,1.225449
10:18:40,30-Sep-21,1.134,1.103,1.285956,1.216609
10:18:40,30-Sep-21,1.134,1.1,1.285956,1.21
10:18:40,30-Sep-21,1.1195,1.096,1.25328025,1.201216
10:18:40,30-Sep-21,1.0995,1.092,1.20890025,1.192464
10:18:40,30-Sep-21,1.0995,1.088,1.20890025,1.183744
10:18:40,30-Sep-21,1.0995,1.084,1.20890025,1.175056
10:18:40,30-Sep-21,1.085,1.08,1.177225,1.1664
10:18:40,30-Sep-21,1.0605,1.076,1.12466025,1.157776
10:18:40,30-Sep-21,1.046,1.072,1.094116,1.149184
10:18:40,30-Sep-21,1.046,1.069,1.094116,1.142761
10:18:40,30-Sep-21,1.0315,1.065,1.06399225,1.134225
10:18:40,30-Sep-21,1.0315,1.061,1.06399225,1.125721
10:18:40,30-Sep-21,1.0215,1.058,1.04346225,1.119364
10:18:40,30-Sep-21,1.0165,1.055,1.03327225,1.113025
10:18:40,30-Sep-21,1.0165,1.052,1.03327225,1.106704
10:18:40,30-Sep-21,1.0315,1.049,1.06399225,1.100401
10:18:40,30-Sep-21,1.036,1.047,1.073296,1.096209
10:18:40,30-Sep-21,1.036,1.044,1.073296,1.089936
10:18:40,30-Sep-21,1.051,1.042,1.104601,1.085764
10:18:40,30-Sep-21,1.051,1.04,1.104601,1.0816
10:18:40,30-Sep-21,1.051,1.038,1.104601,1.077444
10:18:40,30-Sep-21,1.041,1.037,1.083681,1.075369
10:18:40,30-Sep-21,1.041,1.035,1.083681,1.071225
10:18:40,30-Sep-21,1.041,1.034,1.083681,1.069156
10:18:40,30-Sep-21,1.0265,1.033,1.05370225,1.067089
10:18:40,30-Sep-21,1.0265,1.032,1.05370225,1.065024
10:18:40,30-Sep-21,1.0265,1.031,1.05370225,1.062961
10:18:40,30-Sep-21,1.0215,1.03,1.04346225,1.0609
10:18:40,30-Sep-21,1.0215,1.03,1.04346225,1.0609
10:18:40,30-Sep-21,1.0165,1.029,1.03327225,1.058841
10:18:40,30-Sep-21,1.0165,1.029,1.03327225,1.058841
10:18:40,30-Sep-21,1.0215,1.028,1.04346225,1.056784
10:18:40,30-Sep-21,1.0215,1.028,1.04346225,1.056784
10:18:40,30-Sep-21,1.0215,1.028,1.04346225,1.056784
10:18:40,30-Sep-21,1.0215,1.028,1.04346225,1.056784
10:18:40,30-Sep-21,1.046,1.027,1.094116,1.054729
10:18:40,30-Sep-21,1.051,1.027,1.104601,1.054729
10:18:40,30-Sep-21,1.051,1.027,1.104601,1.054729
10:18:40,30-Sep-21,1.0605,1.027,1.12466025,1.054729
10:18:41,30-Sep-21,1.0605,1.027,1.12466025,1.054729
10:18:41,30-Sep-21,1.0605,1.026,1.12466025,1.052676
10:18:41,30-Sep-21,1.051,1.026,1.104601,1.052676
10:18:41,30-Sep-21,1.051,1.026,1.104601,1.052676
10:18:41,30-Sep-21,1.041,1.026,1.083681,1.052676
10:18:41,30-Sep-21,1.041,1.026,1.083681,1.052676
10:18:41,30-Sep-21,1.041,1.026,1.083681,1.052676
10:18:41,30-Sep-21,1.041,1.027,1.083681,1.054729
10:18:41,30-Sep-21,1.036,1.027,1.073296,1.054729
10:18:41,30-Sep-21,1.036,1.027,1.073296,1.054729
10:18:41,30-Sep-21,1.0265,1.028,1.05370225,1.056784
10:18:41,30-Sep-21,1.0265,1.029,1.05370225,1.058841
10:18:41,30-Sep-21,1.0215,1.03,1.04346225,1.0609
10:18:41,30-Sep-21,1.0215,1.031,1.04346225,1.062961
10:18:41,30-Sep-21,1.0265,1.033,1.05370225,1.067089
10:18:41,30-Sep-21,1.0265,1.035,1.05370225,1.071225
10:18:41,30-Sep-21,1.0265,1.038,1.05370225,1.077444
10:18:41,30-Sep-21,1.036,1.04,1.073296,1.0816
10:18:41,30-Sep-21,1.036,1.043,1.073296,1.087849
10:18:41,30-Sep-21,1.0605,1.047,1.12466025,1.096209
10:18:41,30-Sep-21,1.0605,1.051,1.12466025,1.104601
10:18:41,30-Sep-21,1.0605,1.056,1.12466025,1.115136
10:18:41,30-Sep-21,1.0605,1.06,1.12466025,1.1236
10:18:41,30-Sep-21,1.0605,1.066,1.12466025,1.136356
10:18:41,30-Sep-21,1.0605,1.072,1.12466025,1.149184
10:18:41,30-Sep-21,1.0605,1.078,1.12466025,1.162084
10:18:41,30-Sep-21,1.0605,1.085,1.12466025,1.177225
10:18:41,30-Sep-21,1.0605,1.093,1.12466025,1.194649
10:18:41,30-Sep-21,1.046,1.1,1.094116,1.21
10:18:41,30-Sep-21,1.046,1.109,1.094116,1.229881
10:18:41,30-Sep-21,1.0755,1.118,1.15670025,1.249924
10:18:41,30-Sep-21,1.0755,1.127,1.15670025,1.270129
10:18:41,30-Sep-21,1.0995,1.136,1.20890025,1.290496
10:18:41,30-Sep-21,1.0995,1.146,1.20890025,1.313316
10:18:41,30-Sep-21,1.124,1.156,1.263376,1.336336
10:18:41,30-Sep-21,1.168,1.167,1.364224,1.361889
10:18:41,30-Sep-21,1.168,1.178,1.364224,1.387684
10:18:41,30-Sep-21,1.212,1.189,1.468944,1.413721
10:18:41,30-Sep-21,1.2465,1.2,1.55376225,1.44
10:18:41,30-Sep-21,1.2465,1.211,1.55376225,1.466521
10:18:41,30-Sep-21,1.266,1.222,1.602756,1.493284
10:18:41,30-Sep-21,1.266,1.233,1.602756,1.520289
10:18:41,30-Sep-21,1.2805,1.244,1.63968025,1.547536
10:18:41,30-Sep-21,1.2805,1.255,1.63968025,1.575025
10:18:41,30-Sep-21,1.2905,1.266,1.66539025,1.602756
10:18:41,30-Sep-21,1.2855,1.276,1.65251025,1.628176
10:18:41,30-Sep-21,1.295,1.287,1.677025,1.656369
10:18:41,30-Sep-21,1.295,1.297,1.677025,1.682209
10:18:41,30-Sep-21,1.305,1.307,1.703025,1.708249
10:18:41,30-Sep-21,1.3195,1.317,1.74108025,1.734489
10:18:41,30-Sep-21,1.3585,1.326,1.84552225,1.758276
10:18:41,30-Sep-21,1.3585,1.335,1.84552225,1.782225
10:18:41,30-Sep-21,1.3735,1.344,1.88650225,1.806336
10:18:41,30-Sep-21,1.3735,1.352,1.88650225,1.827904
10:18:41,30-Sep-21,1.383,1.36,1.912689,1.8496
10:18:41,30-Sep-21,1.383,1.368,1.912689,1.871424
10:18:41,30-Sep-21,1.383,1.375,1.912689,1.890625
10:18:41,30-Sep-21,1.393,1.382,1.940449,1.909924
10:18:41,30-Sep-21,1.383,1.389,1.912689,1.929321
10:18:41,30-Sep-21,1.383,1.396,1.912689,1.948816
10:18:41,30-Sep-21,1.383,1.402,1.912689,1.965604
10:18:41,30-Sep-21,1.388,1.407,1.926544,1.979649
10:18:41,30-Sep-21,1.383,1.413,1.912689,1.996569
10:18:41,30-Sep-21,1.388,1.418,1.926544,2.010724
10:18:41,30-Sep-21,1.388,1.423,1.926544,2.024929
10:18:41,30-Sep-21,1.4125,1.427,1.99515625,2.036329
10:18:41,30-Sep-21,1.432,1.432,2.050624,2.050624
10:18:41,30-Sep-21,1.432,1.436,2.050624,2.062096
10:18:41,30-Sep-21,1.432,1.44,2.050624,2.0736
10:18:41,30-Sep-21,1.4465,1.443,2.09236225,2.082249
10:18:41,30-Sep-21,1.4465,1.447,2.09236225,2.093809
10:18:41,30-Sep-21,1.471,1.45,2.163841,2.1025
10:18:41,30-Sep-21,1.471,1.453,2.163841,2.111209
10:18:41,30-Sep-21,1.471,1.455,2.163841,2.117025
10:18:41,30-Sep-21,1.476,1.458,2.178576,2.125764
10:18:41,30-Sep-21,1.476,1.461,2.178576,2.134521
10:18:41,30-Sep-21,1.476,1.463,2.178576,2.140369
10:18:41,30-Sep-21,1.476,1.465,2.178576,2.146225
10:18:41,30-Sep-21,1.4665,1.467,2.15062225,2.152089
10:18:41,30-Sep-21,1.4665,1.469,2.15062225,2.157961
10:18:41,30-Sep-21,1.4665,1.471,2.15062225,2.163841
10:18:41,30-Sep-21,1.4665,1.473,2.15062225,2.169729
10:18:41,30-Sep-21,1.4515,1.474,2.10685225,2.172676
10:18:41,30-Sep-21,1.4515,1.476,2.10685225,2.178576
10:18:41,30-Sep-21,1.4515,1.477,2.10685225,2.181529
10:18:41,30-Sep-21,1.4515,1.479,2.10685225,2.187441
10:18:41,30-Sep-21,1.4515,1.48,2.10685225,2.1904
10:18:41,30-Sep-21,1.4515,1.481,2.10685225,2.193361
10:18:41,30-Sep-21,1.4615,1.483,2.13598225,2.199289
10:18:41,30-Sep-21,1.4615,1.484,2.13598225,2.202256
10:18:41,30-Sep-21,1.4905,1.485,2.22159025,2.205225
10:18:41,30-Sep-21,1.4905,1.486,2.22159025,2.208196
10:18:41,30-Sep-21,1.5005,1.487,2.25150025,2.211169
10:18:41,30-Sep-21,1.5005,1.488,2.25150025,2.214144
10:18:41,30-Sep-21,1.5005,1.489,2.25150025,2.217121
10:18:41,30-Sep-21,1.5105,1.489,2.28161025,2.217121
10:18:41,30-Sep-21,1.5105,1.49,2.28161025,2.2201
10:18:41,30-Sep-21,1.515,1.49,2.295225,2.2201
10:18:41,30-Sep-21,1.515,1.491,2.295225,2.223081
10:18:41,30-Sep-21,1.515,1.491,2.295225,2.223081
10:18:41,30-Sep-21,1.515,1.491,2.295225,2.223081
10:18:41,30-Sep-21,1.515,1.492,2.295225,2.226064
10:18:42,30-Sep-21,1.5105,1.492,2.28161025,2.226064
10:18:42,30-Sep-21,1.5105,1.492,2.28161025,2.226064
10:18:42,30-Sep-21,1.4955,1.492,2.23652025,2.226064
10:18:42,30-Sep-21,1.4955,1.491,2.23652025,2.223081
10:18:42,30-Sep-21,1.486,1.491,2.208196,2.223081
10:18:42,30-Sep-21,1.486,1.491,2.208196,2.223081
10:18:42,30-Sep-21,1.4665,1.491,2.15062225,2.223081
10:18:42,30-Sep-21,1.4665,1.491,2.15062225,2.223081
10:18:42,30-Sep-21,1.4665,1.49,2.15062225,2.2201
10:18:42,30-Sep-21,1.4665,1.49,2.15062225,2.2201
10:18:42,30-Sep-21,1.4665,1.49,2.15062225,2.2201
10:18:42,30-Sep-21,1.4665,1.489,2.15062225,2.217121
10:18:42,30-Sep-21,1.4665,1.489,2.15062225,2.217121
10:18:42,30-Sep-21,1.4665,1.488,2.15062225,2.214144
10:18:42,30-Sep-21,1.4665,1.488,2.15062225,2.214144
10:18:42,30-Sep-21,1.4665,1.488,2.15062225,2.214144
10:18:42,30-Sep-21,1.476,1.487,2.178576,2.211169
10:18:42,30-Sep-21,1.476,1.487,2.178576,2.211169
10:18:42,30-Sep-21,1.476,1.486,2.178576,2.208196
10:18:42,30-Sep-21,1.486,1.485,2.208196,2.205225
10:18:42,30-Sep-21,1.486,1.485,2.208196,2.205225
10:18:42,30-Sep-21,1.5105,1.484,2.28161025,2.202256
10:18:42,30-Sep-21,1.5105,1.483,2.28161025,2.199289
10:18:42,30-Sep-21,1.5105,1.482,2.28161025,2.196324
10:18:42,30-Sep-21,1.5105,1.481,2.28161025,2.193361
10:18:42,30-Sep-21,1.5105,1.48,2.28161025,2.1904
10:18:42,30-Sep-21,1.5105,1.479,2.28161025,2.187441
10:18:42,30-Sep-21,1.5105,1.478,2.28161025,2.184484
10:18:42,30-Sep-21,1.5005,1.476,2.25150025,2.178576
10:18:42,30-Sep-21,1.5005,1.475,2.25150025,2.175625
10:18:42,30-Sep-21,1.4905,1.474,2.22159025,2.172676
10:18:42,30-Sep-21,1.4905,1.472,2.22159025,2.166784
10:18:42,30-Sep-21,1.4665,1.471,2.15062225,2.163841
10:18:42,30-Sep-21,1.4665,1.469,2.15062225,2.157961
10:18:42,30-Sep-21,1.4565,1.468,2.12139225,2.155024
10:18:42,30-Sep-21,1.4565,1.466,2.12139225,2.149156
10:18:42,30-Sep-21,1.4565,1.465,2.12139225,2.146225
10:18:42,30-Sep-21,1.437,1.463,2.064969,2.140369
10:18:42,30-Sep-21,1.437,1.462,2.064969,2.137444
10:18:42,30-Sep-21,1.432,1.461,2.050624,2.134521
10:18:42,30-Sep-21,1.432,1.46,2.050624,2.1316
10:18:42,30-Sep-21,1.432,1.459,2.050624,2.128681
10:18:42,30-Sep-21,1.432,1.458,2.050624,2.125764
10:18:42,30-Sep-21,1.4565,1.457,2.12139225,2.122849
10:18:42,30-Sep-21,1.4565,1.456,2.12139225,2.119936
10:18:42,30-Sep-21,1.4565,1.455,2.12139225,2.117025
10:18:42,30-Sep-21,1.4665,1.455,2.15062225,2.117025
10:18:42,30-Sep-21,1.4665,1.454,2.15062225,2.114116
10:18:42,30-Sep-21,1.476,1.454,2.178576,2.114116
10:18:42,30-Sep-21,1.471,1.454,2.163841,2.114116
10:18:42,30-Sep-21,1.4565,1.454,2.12139225,2.114116
10:18:42,30-Sep-21,1.4565,1.454,2.12139225,2.114116
10:18:42,30-Sep-21,1.4565,1.454,2.12139225,2.114116
10:18:42,30-Sep-21,1.437,1.454,2.064969,2.114116
10:18:42,30-Sep-21,1.437,1.454,2.064969,2.114116
10:18:42,30-Sep-21,1.437,1.455,2.064969,2.117025
10:18:42,30-Sep-21,1.437,1.455,2.064969,2.117025
10:18:42,30-Sep-21,1.437,1.456,2.064969,2.119936
10:18:42,30-Sep-21,1.442,1.457,2.079364,2.122849
10:18:42,30-Sep-21,1.442,1.457,2.079364,2.122849
10:18:42,30-Sep-21,1.4515,1.458,2.10685225,2.125764
10:18:42,30-Sep-21,1.4515,1.459,2.10685225,2.128681
10:18:42,30-Sep-21,1.486,1.46,2.208196,2.1316
10:18:42,30-Sep-21,1.486,1.461,2.208196,2.134521
10:18:42,30-Sep-21,1.4905,1.462,2.22159025,2.137444
10:18:42,30-Sep-21,1.4905,1.463,2.22159025,2.140369
10:18:42,30-Sep-21,1.4905,1.464,2.22159025,2.143296
10:18:42,30-Sep-21,1.4905,1.465,2.22159025,2.146225
10:18:42,30-Sep-21,1.471,1.465,2.163841,2.146225
10:18:42,30-Sep-21,1.471,1.466,2.163841,2.149156
10:18:42,30-Sep-21,1.4665,1.467,2.15062225,2.152089
10:18:42,30-Sep-21,1.4665,1.468,2.15062225,2.155024
10:18:42,30-Sep-21,1.4615,1.469,2.13598225,2.157961
10:18:42,30-Sep-21,1.4515,1.47,2.10685225,2.1609
10:18:42,30-Sep-21,1.4515,1.47,2.10685225,2.1609
10:18:42,30-Sep-21,1.4515,1.471,2.10685225,2.163841
10:18:42,30-Sep-21,1.471,1.472,2.163841,2.166784
10:18:42,30-Sep-21,1.471,1.472,2.163841,2.166784
10:18:42,30-Sep-21,1.476,1.473,2.178576,2.169729
10:18:42,30-Sep-21,1.476,1.473,2.178576,2.169729
10:18:42,30-Sep-21,1.4955,1.474,2.23652025,2.172676
10:18:42,30-Sep-21,1.486,1.474,2.208196,2.172676
10:18:42,30-Sep-21,1.481,1.474,2.193361,2.172676
10:18:42,30-Sep-21,1.481,1.475,2.193361,2.175625
10:18:42,30-Sep-21,1.476,1.475,2.178576,2.175625
10:18:42,30-Sep-21,1.476,1.475,2.178576,2.175625
10:18:42,30-Sep-21,1.476,1.475,2.178576,2.175625
10:18:42,30-Sep-21,1.4665,1.475,2.15062225,2.175625
10:18:42,30-Sep-21,1.4465,1.475,2.09236225,2.175625
10:18:42,30-Sep-21,1.442,1.475,2.079364,2.175625
10:18:42,30-Sep-21,1.437,1.475,2.064969,2.175625
10:18:42,30-Sep-21,1.442,1.475,2.079364,2.175625
10:18:42,30-Sep-21,1.442,1.475,2.079364,2.175625
10:18:42,30-Sep-21,1.471,1.474,2.163841,2.172676
10:18:42,30-Sep-21,1.471,1.474,2.163841,2.172676
10:18:42,30-Sep-21,1.481,1.473,2.193361,2.169729
10:18:42,30-Sep-21,1.481,1.472,2.193361,2.166784
10:18:42,30-Sep-21,1.486,1.471,2.208196,2.163841
10:18:42,30-Sep-21,1.486,1.47,2.208196,2.1609
10:18:42,30-Sep-21,1.486,1.469,2.208196,2.157961
10:18:42,30-Sep-21,1.486,1.468,2.208196,2.155024
10:18:42,30-Sep-21,1.486,1.467,2.208196,2.152089
10:18:42,30-Sep-21,1.486,1.465,2.208196,2.146225
10:18:42,30-Sep-21,1.486,1.463,2.208196,2.140369
10:18:42,30-Sep-21,1.486,1.461,2.208196,2.134521
10:18:42,30-Sep-21,1.486,1.46,2.208196,2.1316
10:18:43,30-Sep-21,1.486,1.458,2.208196,2.125764
10:18:43,30-Sep-21,1.4665,1.455,2.15062225,2.117025
10:18:43,30-Sep-21,1.4665,1.453,2.15062225,2.111209
10:18:43,30-Sep-21,1.4565,1.451,2.12139225,2.105401
10:18:43,30-Sep-21,1.4565,1.449,2.12139225,2.099601
10:18:43,30-Sep-21,1.437,1.447,2.064969,2.093809
10:18:43,30-Sep-21,1.427,1.444,2.036329,2.085136
10:18:43,30-Sep-21,1.427,1.442,2.036329,2.079364
10:18:43,30-Sep-21,1.427,1.44,2.036329,2.0736
10:18:43,30-Sep-21,1.427,1.438,2.036329,2.067844
10:18:43,30-Sep-21,1.427,1.436,2.036329,2.062096
10:18:43,30-Sep-21,1.427,1.434,2.036329,2.056356
10:18:43,30-Sep-21,1.427,1.432,2.036329,2.050624
10:18:43,30-Sep-21,1.4465,1.431,2.09236225,2.047761
10:18:43,30-Sep-21,1.4465,1.429,2.09236225,2.042041
10:18:43,30-Sep-21,1.4465,1.428,2.09236225,2.039184
10:18:43,30-Sep-21,1.4465,1.427,2.09236225,2.036329
10:18:43,30-Sep-21,1.4465,1.426,2.09236225,2.033476
10:18:43,30-Sep-21,1.437,1.426,2.064969,2.033476
10:18:43,30-Sep-21,1.4175,1.426,2.00930625,2.033476
10:18:43,30-Sep-21,1.4175,1.426,2.00930625,2.033476
10:18:43,30-Sep-21,1.398,1.426,1.954404,2.033476
10:18:43,30-Sep-21,1.3735,1.427,1.88650225,2.036329
10:18:43,30-Sep-21,1.3735,1.428,1.88650225,2.039184
10:18:43,30-Sep-21,1.3735,1.429,1.88650225,2.042041
10:18:43,30-Sep-21,1.3685,1.43,1.87279225,2.0449
10:18:43,30-Sep-21,1.3785,1.432,1.90026225,2.050624
10:18:43,30-Sep-21,1.3785,1.434,1.90026225,2.056356
10:18:43,30-Sep-21,1.398,1.436,1.954404,2.062096
10:18:43,30-Sep-21,1.442,1.438,2.079364,2.067844
10:18:43,30-Sep-21,1.4665,1.441,2.15062225,2.076481
10:18:43,30-Sep-21,1.4665,1.444,2.15062225,2.085136
10:18:43,30-Sep-21,1.486,1.447,2.208196,2.093809
10:18:43,30-Sep-21,1.486,1.449,2.208196,2.099601
10:18:43,30-Sep-21,1.5055,1.452,2.26653025,2.108304
10:18:43,30-Sep-21,1.5055,1.455,2.26653025,2.117025
10:18:43,30-Sep-21,1.4905,1.459,2.22159025,2.128681
10:18:43,30-Sep-21,1.4905,1.462,2.22159025,2.137444
10:18:43,30-Sep-21,1.4905,1.465,2.22159025,2.146225
10:18:43,30-Sep-21,1.471,1.468,2.163841,2.155024
10:18:43,30-Sep-21,1.471,1.471,2.163841,2.163841
10:18:43,30-Sep-21,1.471,1.474,2.163841,2.172676
10:18:43,30-Sep-21,1.4665,1.476,2.15062225,2.178576
10:18:43,30-Sep-21,1.4665,1.479,2.15062225,2.187441
10:18:43,30-Sep-21,1.471,1.482,2.163841,2.196324
10:18:43,30-Sep-21,1.471,1.484,2.163841,2.202256
10:18:43,30-Sep-21,1.471,1.487,2.163841,2.211169
10:18:43,30-Sep-21,1.481,1.489,2.193361,2.217121
10:18:43,30-Sep-21,1.5105,1.492,2.28161025,2.226064
10:18:43,30-Sep-21,1.5105,1.494,2.28161025,2.232036
10:18:43,30-Sep-21,1.5105,1.496,2.28161025,2.238016
10:18:43,30-Sep-21,1.5105,1.498,2.28161025,2.244004
10:18:43,30-Sep-21,1.515,1.5,2.295225,2.25
10:18:43,30-Sep-21,1.515,1.501,2.295225,2.253001
10:18:43,30-Sep-21,1.515,1.503,2.295225,2.259009
10:18:43,30-Sep-21,1.515,1.505,2.295225,2.265025
10:18:43,30-Sep-21,1.515,1.506,2.295225,2.268036
10:18:43,30-Sep-21,1.515,1.507,2.295225,2.271049
10:18:43,30-Sep-21,1.5005,1.509,2.25150025,2.277081
10:18:43,30-Sep-21,1.5005,1.51,2.25150025,2.2801
10:18:43,30-Sep-21,1.5005,1.511,2.25150025,2.283121
10:18:43,30-Sep-21,1.5005,1.512,2.25150025,2.286144
10:18:43,30-Sep-21,1.5005,1.513,2.25150025,2.289169
10:18:43,30-Sep-21,1.5005,1.514,2.25150025,2.292196
10:18:43,30-Sep-21,1.486,1.515,2.208196,2.295225
10:18:43,30-Sep-21,1.4905,1.516,2.22159025,2.298256
10:18:43,30-Sep-21,1.4905,1.517,2.22159025,2.301289
10:18:43,30-Sep-21,1.4905,1.518,2.22159025,2.304324
10:18:43,30-Sep-21,1.4905,1.519,2.22159025,2.307361
10:18:43,30-Sep-21,1.4905,1.52,2.22159025,2.3104
10:18:43,30-Sep-21,1.515,1.52,2.295225,2.3104
10:18:43,30-Sep-21,1.515,1.521,2.295225,2.313441
10:18:43,30-Sep-21,1.5345,1.522,2.35469025,2.316484
10:18:43,30-Sep-21,1.5345,1.523,2.35469025,2.319529
10:18:43,30-Sep-21,1.5495,1.523,2.40095025,2.319529
10:18:43,30-Sep-21,1.5495,1.524,2.40095025,2.322576
10:18:43,30-Sep-21,1.5545,1.524,2.41647025,2.322576
10:18:43,30-Sep-21,1.5545,1.525,2.41647025,2.325625
10:18:43,30-Sep-21,1.5545,1.525,2.41647025,2.325625
10:18:43,30-Sep-21,1.5445,1.525,2.38548025,2.325625
10:18:43,30-Sep-21,1.5445,1.526,2.38548025,2.328676
10:18:43,30-Sep-21,1.5445,1.526,2.38548025,2.328676
10:18:43,30-Sep-21,1.5445,1.526,2.38548025,2.328676
10:18:43,30-Sep-21,1.5395,1.526,2.37006025,2.328676
10:18:43,30-Sep-21,1.5395,1.526,2.37006025,2.328676
10:18:43,30-Sep-21,1.52,1.526,2.3104,2.328676
10:18:43,30-Sep-21,1.52,1.527,2.3104,2.331729
10:18:43,30-Sep-21,1.52,1.527,2.3104,2.331729
10:18:43,30-Sep-21,1.5105,1.527,2.28161025,2.331729
10:18:43,30-Sep-21,1.5105,1.527,2.28161025,2.331729
10:18:43,30-Sep-21,1.5105,1.527,2.28161025,2.331729
10:18:43,30-Sep-21,1.5105,1.527,2.28161025,2.331729
10:18:43,30-Sep-21,1.5055,1.528,2.26653025,2.334784
10:18:43,30-Sep-21,1.5055,1.528,2.26653025,2.334784
10:18:43,30-Sep-21,1.5055,1.529,2.26653025,2.337841
10:18:43,30-Sep-21,1.5055,1.529,2.26653025,2.337841
10:18:43,30-Sep-21,1.5055,1.53,2.26653025,2.3409
10:18:43,30-Sep-21,1.5055,1.53,2.26653025,2.3409
10:18:43,30-Sep-21,1.5105,1.531,2.28161025,2.343961
10:18:43,30-Sep-21,1.5105,1.531,2.28161025,2.343961
10:18:43,30-Sep-21,1.5445,1.532,2.38548025,2.347024
10:18:43,30-Sep-21,1.5445,1.533,2.38548025,2.350089
10:18:43,30-Sep-21,1.5445,1.534,2.38548025,2.353156
10:18:43,30-Sep-21,1.559,1.534,2.430481,2.353156
10:18:43,30-Sep-21,1.559,1.535,2.430481,2.356225
10:18:43,30-Sep-21,1.559,1.536,2.430481,2.359296
10:18:43,30-Sep-21,1.559,1.537,2.430481,2.362369
