Time,Date,EMG Value (V),Filtered Value (V),,
10:19:21,30-Sep-21,1.178,1.178,1.387684,1.387684
10:19:21,30-Sep-21,1.1585,1.18,1.34212225,1.3924
10:19:21,30-Sep-21,1.1585,1.181,1.34212225,1.394761
10:19:21,30-Sep-21,1.1585,1.183,1.34212225,1.399489
10:19:21,30-Sep-21,1.1535,1.184,1.33056225,1.401856
10:19:21,30-Sep-21,1.1535,1.185,1.33056225,1.404225
10:19:21,30-Sep-21,1.1585,1.186,1.34212225,1.406596
10:19:21,30-Sep-21,1.1585,1.187,1.34212225,1.408969
10:19:21,30-Sep-21,1.1585,1.189,1.34212225,1.413721
10:19:21,30-Sep-21,1.1875,1.19,1.41015625,1.4161
10:19:21,30-Sep-21,1.2025,1.191,1.44600625,1.418481
10:19:21,30-Sep-21,1.2025,1.192,1.44600625,1.420864
10:19:21,30-Sep-21,1.212,1.192,1.468944,1.420864
10:19:21,30-Sep-21,1.212,1.193,1.468944,1.423249
10:19:21,30-Sep-21,1.212,1.194,1.468944,1.425636
10:19:21,30-Sep-21,1.212,1.195,1.468944,1.428025
10:19:21,30-Sep-21,1.212,1.195,1.468944,1.428025
10:19:21,30-Sep-21,1.212,1.196,1.468944,1.430416
10:19:21,30-Sep-21,1.2025,1.196,1.44600625,1.430416
10:19:21,30-Sep-21,1.2025,1.196,1.44600625,1.430416
10:19:21,30-Sep-21,1.2025,1.197,1.44600625,1.432809
10:19:21,30-Sep-21,1.1975,1.197,1.43400625,1.432809
10:19:21,30-Sep-21,1.1975,1.197,1.43400625,1.432809
10:19:21,30-Sep-21,1.183,1.197,1.399489,1.432809
10:19:21,30-Sep-21,1.183,1.196,1.399489,1.430416
10:19:21,30-Sep-21,1.183,1.196,1.399489,1.430416
10:19:21,30-Sep-21,1.183,1.196,1.399489,1.430416
10:19:21,30-Sep-21,1.1875,1.195,1.41015625,1.428025
10:19:21,30-Sep-21,1.1875,1.195,1.41015625,1.428025
10:19:21,30-Sep-21,1.1925,1.194,1.42205625,1.425636
10:19:21,30-Sep-21,1.1925,1.194,1.42205625,1.425636
10:19:21,30-Sep-21,1.1925,1.193,1.42205625,1.423249
10:19:21,30-Sep-21,1.1925,1.192,1.42205625,1.420864
10:19:21,30-Sep-21,1.2025,1.192,1.44600625,1.420864
10:19:21,30-Sep-21,1.212,1.191,1.468944,1.418481
10:19:21,30-Sep-21,1.212,1.19,1.468944,1.4161
10:19:21,30-Sep-21,1.207,1.189,1.456849,1.413721
10:19:21,30-Sep-21,1.207,1.188,1.456849,1.411344
10:19:22,30-Sep-21,1.1925,1.187,1.42205625,1.408969
10:19:22,30-Sep-21,1.1925,1.186,1.42205625,1.406596
10:19:22,30-Sep-21,1.1925,1.185,1.42205625,1.404225
10:19:22,30-Sep-21,1.1925,1.184,1.42205625,1.401856
10:19:22,30-Sep-21,1.183,1.183,1.399489,1.399489
10:19:22,30-Sep-21,1.183,1.182,1.399489,1.397124
10:19:22,30-Sep-21,1.163,1.181,1.352569,1.394761
10:19:22,30-Sep-21,1.163,1.18,1.352569,1.3924
10:19:22,30-Sep-21,1.1535,1.179,1.33056225,1.390041
10:19:22,30-Sep-21,1.1535,1.178,1.33056225,1.387684
10:19:22,30-Sep-21,1.1485,1.177,1.31905225,1.385329
10:19:22,30-Sep-21,1.1485,1.177,1.31905225,1.385329
10:19:22,30-Sep-21,1.1485,1.176,1.31905225,1.382976
10:19:22,30-Sep-21,1.1485,1.175,1.31905225,1.380625
10:19:22,30-Sep-21,1.1485,1.174,1.31905225,1.378276
10:19:22,30-Sep-21,1.1535,1.173,1.33056225,1.375929
10:19:22,30-Sep-21,1.1535,1.173,1.33056225,1.375929
10:19:22,30-Sep-21,1.178,1.172,1.387684,1.373584
10:19:22,30-Sep-21,1.178,1.171,1.387684,1.371241
10:19:22,30-Sep-21,1.1925,1.171,1.42205625,1.371241
10:19:22,30-Sep-21,1.1925,1.17,1.42205625,1.3689
10:19:22,30-Sep-21,1.1975,1.169,1.43400625,1.366561
10:19:22,30-Sep-21,1.1975,1.168,1.43400625,1.364224
10:19:22,30-Sep-21,1.1975,1.167,1.43400625,1.361889
10:19:22,30-Sep-21,1.1975,1.166,1.43400625,1.359556
10:19:22,30-Sep-21,1.1975,1.166,1.43400625,1.359556
10:19:22,30-Sep-21,1.1975,1.165,1.43400625,1.357225
10:19:22,30-Sep-21,1.1975,1.164,1.43400625,1.354896
10:19:22,30-Sep-21,1.178,1.163,1.387684,1.352569
10:19:22,30-Sep-21,1.168,1.162,1.364224,1.350244
10:19:22,30-Sep-21,1.168,1.161,1.364224,1.347921
10:19:22,30-Sep-21,1.1435,1.16,1.30759225,1.3456
10:19:22,30-Sep-21,1.1435,1.159,1.30759225,1.343281
10:19:22,30-Sep-21,1.1435,1.158,1.30759225,1.340964
10:19:22,30-Sep-21,1.1435,1.157,1.30759225,1.338649
10:19:22,30-Sep-21,1.139,1.156,1.297321,1.336336
10:19:22,30-Sep-21,1.129,1.155,1.274641,1.334025
10:19:22,30-Sep-21,1.129,1.154,1.274641,1.331716
10:19:22,30-Sep-21,1.129,1.154,1.274641,1.331716
10:19:22,30-Sep-21,1.139,1.153,1.297321,1.329409
10:19:22,30-Sep-21,1.139,1.153,1.297321,1.329409
10:19:22,30-Sep-21,1.1485,1.152,1.31905225,1.327104
10:19:22,30-Sep-21,1.1485,1.152,1.31905225,1.327104
10:19:22,30-Sep-21,1.168,1.152,1.364224,1.327104
10:19:22,30-Sep-21,1.168,1.152,1.364224,1.327104
10:19:22,30-Sep-21,1.168,1.152,1.364224,1.327104
10:19:22,30-Sep-21,1.168,1.152,1.364224,1.327104
10:19:22,30-Sep-21,1.173,1.152,1.375929,1.327104
10:19:22,30-Sep-21,1.173,1.153,1.375929,1.329409
10:19:22,30-Sep-21,1.168,1.153,1.364224,1.329409
10:19:22,30-Sep-21,1.168,1.154,1.364224,1.331716
10:19:22,30-Sep-21,1.168,1.155,1.364224,1.334025
10:19:22,30-Sep-21,1.168,1.156,1.364224,1.336336
10:19:22,30-Sep-21,1.1485,1.157,1.31905225,1.338649
10:19:22,30-Sep-21,1.1485,1.158,1.31905225,1.340964
10:19:22,30-Sep-21,1.1485,1.159,1.31905225,1.343281
10:19:22,30-Sep-21,1.1485,1.16,1.31905225,1.3456
10:19:22,30-Sep-21,1.1435,1.162,1.30759225,1.350244
10:19:22,30-Sep-21,1.1435,1.164,1.30759225,1.354896
10:19:22,30-Sep-21,1.1435,1.165,1.30759225,1.357225
10:19:22,30-Sep-21,1.139,1.167,1.297321,1.361889
10:19:22,30-Sep-21,1.139,1.169,1.297321,1.366561
10:19:22,30-Sep-21,1.139,1.17,1.297321,1.3689
10:19:22,30-Sep-21,1.139,1.172,1.297321,1.373584
10:19:22,30-Sep-21,1.163,1.174,1.352569,1.378276
10:19:22,30-Sep-21,1.163,1.176,1.352569,1.382976
10:19:22,30-Sep-21,1.168,1.177,1.364224,1.385329
10:19:22,30-Sep-21,1.168,1.179,1.364224,1.390041
10:19:22,30-Sep-21,1.168,1.18,1.364224,1.3924
10:19:22,30-Sep-21,1.183,1.181,1.399489,1.394761
10:19:22,30-Sep-21,1.183,1.182,1.399489,1.397124
10:19:22,30-Sep-21,1.183,1.182,1.399489,1.397124
10:19:22,30-Sep-21,1.183,1.182,1.399489,1.397124
10:19:22,30-Sep-21,1.183,1.182,1.399489,1.397124
10:19:22,30-Sep-21,1.178,1.182,1.387684,1.397124
10:19:22,30-Sep-21,1.178,1.181,1.387684,1.394761
10:19:22,30-Sep-21,1.173,1.179,1.375929,1.390041
10:19:22,30-Sep-21,1.173,1.177,1.375929,1.385329
10:19:22,30-Sep-21,1.178,1.175,1.387684,1.380625
10:19:22,30-Sep-21,1.178,1.172,1.387684,1.373584
10:19:22,30-Sep-21,1.178,1.168,1.387684,1.364224
10:19:22,30-Sep-21,1.178,1.164,1.387684,1.354896
10:19:22,30-Sep-21,1.178,1.159,1.387684,1.343281
10:19:22,30-Sep-21,1.178,1.154,1.387684,1.331716
10:19:22,30-Sep-21,1.178,1.148,1.387684,1.317904
10:19:22,30-Sep-21,1.1585,1.141,1.34212225,1.301881
10:19:22,30-Sep-21,1.1585,1.133,1.34212225,1.283689
10:19:22,30-Sep-21,1.1435,1.126,1.30759225,1.267876
10:19:22,30-Sep-21,1.1435,1.117,1.30759225,1.247689
10:19:22,30-Sep-21,1.1435,1.108,1.30759225,1.227664
10:19:22,30-Sep-21,1.1435,1.098,1.30759225,1.205604
10:19:22,30-Sep-21,1.1435,1.088,1.30759225,1.183744
10:19:22,30-Sep-21,1.1435,1.077,1.30759225,1.159929
10:19:22,30-Sep-21,1.1095,1.066,1.23099025,1.136356
10:19:22,30-Sep-21,1.1095,1.054,1.23099025,1.110916
10:19:22,30-Sep-21,1.0655,1.043,1.13529025,1.087849
10:19:22,30-Sep-21,1.0655,1.03,1.13529025,1.0609
10:19:22,30-Sep-21,1.002,1.018,1.004004,1.036324
10:19:22,30-Sep-21,1.002,1.005,1.004004,1.010025
10:19:22,30-Sep-21,0.948,0.993,0.898704,0.986049
10:19:22,30-Sep-21,0.948,0.98,0.898704,0.9604
10:19:22,30-Sep-21,0.948,0.967,0.898704,0.935089
10:19:22,30-Sep-21,0.948,0.955,0.898704,0.912025
10:19:22,30-Sep-21,0.904,0.942,0.817216,0.887364
10:19:22,30-Sep-21,0.904,0.93,0.817216,0.8649
10:19:22,30-Sep-21,0.87,0.918,0.7569,0.842724
10:19:22,30-Sep-21,0.8455,0.906,0.71487025,0.820836
10:19:22,30-Sep-21,0.8455,0.895,0.71487025,0.801025
10:19:22,30-Sep-21,0.8455,0.884,0.71487025,0.781456
10:19:22,30-Sep-21,0.826,0.873,0.682276,0.762129
10:19:22,30-Sep-21,0.826,0.863,0.682276,0.744769
10:19:22,30-Sep-21,0.826,0.853,0.682276,0.727609
10:19:22,30-Sep-21,0.816,0.844,0.665856,0.712336
10:19:22,30-Sep-21,0.816,0.835,0.665856,0.697225
10:19:22,30-Sep-21,0.8115,0.826,0.65853225,0.682276
10:19:22,30-Sep-21,0.8115,0.818,0.65853225,0.669124
10:19:22,30-Sep-21,0.8115,0.811,0.65853225,0.657721
10:19:22,30-Sep-21,0.8115,0.804,0.65853225,0.646416
10:19:22,30-Sep-21,0.8115,0.798,0.65853225,0.636804
10:19:22,30-Sep-21,0.8015,0.792,0.64240225,0.627264
10:19:22,30-Sep-21,0.8015,0.786,0.64240225,0.617796
10:19:22,30-Sep-21,0.792,0.781,0.627264,0.609961
10:19:22,30-Sep-21,0.792,0.776,0.627264,0.602176
10:19:22,30-Sep-21,0.792,0.772,0.627264,0.595984
10:19:23,30-Sep-21,0.782,0.768,0.611524,0.589824
10:19:23,30-Sep-21,0.782,0.765,0.611524,0.585225
10:19:23,30-Sep-21,0.782,0.761,0.611524,0.579121
10:19:23,30-Sep-21,0.7675,0.758,0.58905625,0.574564
10:19:23,30-Sep-21,0.7675,0.756,0.58905625,0.571536
10:19:23,30-Sep-21,0.7525,0.754,0.56625625,0.568516
10:19:23,30-Sep-21,0.7525,0.751,0.56625625,0.564001
10:19:23,30-Sep-21,0.748,0.75,0.559504,0.5625
10:19:23,30-Sep-21,0.748,0.748,0.559504,0.559504
10:19:23,30-Sep-21,0.738,0.747,0.544644,0.558009
10:19:23,30-Sep-21,0.738,0.745,0.544644,0.555025
10:19:23,30-Sep-21,0.738,0.744,0.544644,0.553536
10:19:23,30-Sep-21,0.738,0.743,0.544644,0.552049
10:19:23,30-Sep-21,0.738,0.743,0.544644,0.552049
10:19:23,30-Sep-21,0.738,0.742,0.544644,0.550564
10:19:23,30-Sep-21,0.738,0.741,0.544644,0.549081
10:19:23,30-Sep-21,0.748,0.741,0.559504,0.549081
10:19:23,30-Sep-21,0.748,0.74,0.559504,0.5476
10:19:23,30-Sep-21,0.7525,0.74,0.56625625,0.5476
10:19:23,30-Sep-21,0.7525,0.74,0.56625625,0.5476
10:19:23,30-Sep-21,0.7525,0.739,0.56625625,0.546121
10:19:23,30-Sep-21,0.7525,0.739,0.56625625,0.546121
10:19:23,30-Sep-21,0.7525,0.739,0.56625625,0.546121
10:19:23,30-Sep-21,0.7525,0.738,0.56625625,0.544644
10:19:23,30-Sep-21,0.7525,0.738,0.56625625,0.544644
10:19:23,30-Sep-21,0.748,0.738,0.559504,0.544644
10:19:23,30-Sep-21,0.748,0.737,0.559504,0.543169
10:19:23,30-Sep-21,0.738,0.737,0.544644,0.543169
10:19:23,30-Sep-21,0.738,0.737,0.544644,0.543169
10:19:23,30-Sep-21,0.733,0.736,0.537289,0.541696
10:19:23,30-Sep-21,0.733,0.736,0.537289,0.541696
10:19:23,30-Sep-21,0.7235,0.736,0.52345225,0.541696
10:19:23,30-Sep-21,0.7235,0.735,0.52345225,0.540225
10:19:23,30-Sep-21,0.7235,0.735,0.52345225,0.540225
10:19:23,30-Sep-21,0.7185,0.735,0.51624225,0.540225
10:19:23,30-Sep-21,0.7185,0.734,0.51624225,0.538756
10:19:23,30-Sep-21,0.7185,0.734,0.51624225,0.538756
10:19:23,30-Sep-21,0.7185,0.734,0.51624225,0.538756
10:19:23,30-Sep-21,0.7185,0.733,0.51624225,0.537289
10:19:23,30-Sep-21,0.7185,0.733,0.51624225,0.537289
10:19:23,30-Sep-21,0.738,0.732,0.544644,0.535824
10:19:23,30-Sep-21,0.738,0.732,0.544644,0.535824
10:19:23,30-Sep-21,0.738,0.731,0.544644,0.534361
10:19:23,30-Sep-21,0.738,0.731,0.544644,0.534361
10:19:23,30-Sep-21,0.738,0.73,0.544644,0.5329
10:19:23,30-Sep-21,0.738,0.73,0.544644,0.5329
10:19:23,30-Sep-21,0.738,0.729,0.544644,0.531441
10:19:23,30-Sep-21,0.738,0.729,0.544644,0.531441
10:19:23,30-Sep-21,0.738,0.728,0.544644,0.529984
10:19:23,30-Sep-21,0.733,0.728,0.537289,0.529984
10:19:23,30-Sep-21,0.733,0.727,0.537289,0.528529
10:19:23,30-Sep-21,0.733,0.726,0.537289,0.527076
10:19:23,30-Sep-21,0.7235,0.726,0.52345225,0.527076
10:19:23,30-Sep-21,0.7235,0.725,0.52345225,0.525625
10:19:23,30-Sep-21,0.7235,0.724,0.52345225,0.524176
10:19:23,30-Sep-21,0.7235,0.724,0.52345225,0.524176
10:19:23,30-Sep-21,0.7185,0.723,0.51624225,0.522729
10:19:23,30-Sep-21,0.7185,0.722,0.51624225,0.521284
10:19:23,30-Sep-21,0.7135,0.721,0.50908225,0.519841
10:19:23,30-Sep-21,0.7135,0.721,0.50908225,0.519841
10:19:23,30-Sep-21,0.7085,0.72,0.50197225,0.5184
10:19:23,30-Sep-21,0.7135,0.719,0.50908225,0.516961
10:19:23,30-Sep-21,0.7135,0.718,0.50908225,0.515524
10:19:23,30-Sep-21,0.7135,0.717,0.50908225,0.514089
10:19:23,30-Sep-21,0.7135,0.716,0.50908225,0.512656
10:19:23,30-Sep-21,0.7135,0.715,0.50908225,0.511225
10:19:23,30-Sep-21,0.7135,0.714,0.50908225,0.509796
10:19:23,30-Sep-21,0.7135,0.713,0.50908225,0.508369
10:19:23,30-Sep-21,0.7135,0.713,0.50908225,0.508369
10:19:23,30-Sep-21,0.7135,0.712,0.50908225,0.506944
10:19:23,30-Sep-21,0.7185,0.711,0.51624225,0.505521
10:19:23,30-Sep-21,0.7185,0.71,0.51624225,0.5041
10:19:23,30-Sep-21,0.7185,0.709,0.51624225,0.502681
10:19:23,30-Sep-21,0.7185,0.707,0.51624225,0.499849
10:19:23,30-Sep-21,0.7185,0.706,0.51624225,0.498436
10:19:23,30-Sep-21,0.7085,0.705,0.50197225,0.497025
10:19:23,30-Sep-21,0.7085,0.704,0.50197225,0.495616
10:19:23,30-Sep-21,0.704,0.703,0.495616,0.494209
10:19:23,30-Sep-21,0.704,0.702,0.495616,0.492804
10:19:23,30-Sep-21,0.689,0.701,0.474721,0.491401
10:19:23,30-Sep-21,0.689,0.7,0.474721,0.49
10:19:23,30-Sep-21,0.689,0.699,0.474721,0.488601
10:19:23,30-Sep-21,0.689,0.698,0.474721,0.487204
10:19:23,30-Sep-21,0.689,0.697,0.474721,0.485809
10:19:23,30-Sep-21,0.689,0.695,0.474721,0.483025
10:19:23,30-Sep-21,0.689,0.694,0.474721,0.481636
10:19:23,30-Sep-21,0.6845,0.693,0.46854025,0.480249
10:19:23,30-Sep-21,0.6845,0.692,0.46854025,0.478864
10:19:23,30-Sep-21,0.6845,0.691,0.46854025,0.477481
10:19:23,30-Sep-21,0.6845,0.69,0.46854025,0.4761
10:19:23,30-Sep-21,0.6845,0.689,0.46854025,0.474721
10:19:23,30-Sep-21,0.6845,0.688,0.46854025,0.473344
10:19:23,30-Sep-21,0.699,0.687,0.488601,0.471969
10:19:23,30-Sep-21,0.699,0.686,0.488601,0.470596
10:19:23,30-Sep-21,0.699,0.685,0.488601,0.469225
10:19:23,30-Sep-21,0.699,0.684,0.488601,0.467856
10:19:23,30-Sep-21,0.699,0.683,0.488601,0.466489
10:19:23,30-Sep-21,0.699,0.683,0.488601,0.466489
10:19:23,30-Sep-21,0.699,0.682,0.488601,0.465124
10:19:23,30-Sep-21,0.699,0.681,0.488601,0.463761
10:19:23,30-Sep-21,0.699,0.681,0.488601,0.463761
10:19:23,30-Sep-21,0.689,0.68,0.474721,0.4624
10:19:23,30-Sep-21,0.689,0.68,0.474721,0.4624
10:19:23,30-Sep-21,0.6795,0.679,0.46172025,0.461041
10:19:23,30-Sep-21,0.6795,0.679,0.46172025,0.461041
10:19:23,30-Sep-21,0.6695,0.679,0.44823025,0.461041
10:19:23,30-Sep-21,0.6695,0.679,0.44823025,0.461041
10:19:23,30-Sep-21,0.6695,0.68,0.44823025,0.4624
10:19:23,30-Sep-21,0.6695,0.68,0.44823025,0.4624
10:19:23,30-Sep-21,0.6695,0.681,0.44823025,0.463761
10:19:23,30-Sep-21,0.6695,0.681,0.44823025,0.463761
10:19:23,30-Sep-21,0.6695,0.682,0.44823025,0.465124
10:19:23,30-Sep-21,0.6695,0.684,0.44823025,0.467856
10:19:23,30-Sep-21,0.6795,0.685,0.46172025,0.469225
10:19:23,30-Sep-21,0.6795,0.687,0.46172025,0.471969
10:19:23,30-Sep-21,0.689,0.689,0.474721,0.474721
10:19:23,30-Sep-21,0.689,0.691,0.474721,0.477481
10:19:23,30-Sep-21,0.689,0.693,0.474721,0.480249
10:19:23,30-Sep-21,0.704,0.696,0.495616,0.484416
10:19:23,30-Sep-21,0.704,0.698,0.495616,0.487204
10:19:23,30-Sep-21,0.7085,0.701,0.50197225,0.491401
10:19:23,30-Sep-21,0.7085,0.705,0.50197225,0.497025
10:19:23,30-Sep-21,0.7085,0.708,0.50197225,0.501264
10:19:23,30-Sep-21,0.7085,0.712,0.50197225,0.506944
10:19:23,30-Sep-21,0.7135,0.715,0.50908225,0.511225
10:19:23,30-Sep-21,0.7135,0.719,0.50908225,0.516961
10:19:24,30-Sep-21,0.7135,0.724,0.50908225,0.524176
10:19:24,30-Sep-21,0.7085,0.728,0.50197225,0.529984
10:19:24,30-Sep-21,0.7085,0.732,0.50197225,0.535824
10:19:24,30-Sep-21,0.7285,0.737,0.53071225,0.543169
10:19:24,30-Sep-21,0.7285,0.742,0.53071225,0.550564
10:19:24,30-Sep-21,0.743,0.747,0.552049,0.558009
10:19:24,30-Sep-21,0.743,0.752,0.552049,0.565504
10:19:24,30-Sep-21,0.7525,0.756,0.56625625,0.571536
10:19:24,30-Sep-21,0.7525,0.761,0.56625625,0.579121
10:19:24,30-Sep-21,0.772,0.766,0.595984,0.586756
10:19:24,30-Sep-21,0.772,0.771,0.595984,0.594441
10:19:24,30-Sep-21,0.772,0.776,0.595984,0.602176
10:19:24,30-Sep-21,0.772,0.781,0.595984,0.609961
10:19:24,30-Sep-21,0.7965,0.786,0.63441225,0.617796
10:19:24,30-Sep-21,0.7965,0.791,0.63441225,0.625681
10:19:24,30-Sep-21,0.7965,0.796,0.63441225,0.633616
10:19:24,30-Sep-21,0.816,0.8,0.665856,0.64
10:19:24,30-Sep-21,0.836,0.805,0.698896,0.648025
10:19:24,30-Sep-21,0.836,0.809,0.698896,0.654481
10:19:24,30-Sep-21,0.8405,0.813,0.70644025,0.660969
10:19:24,30-Sep-21,0.8405,0.817,0.70644025,0.667489
10:19:24,30-Sep-21,0.8405,0.821,0.70644025,0.674041
10:19:24,30-Sep-21,0.8405,0.825,0.70644025,0.680625
10:19:24,30-Sep-21,0.8405,0.828,0.70644025,0.685584
10:19:24,30-Sep-21,0.8405,0.832,0.70644025,0.692224
10:19:24,30-Sep-21,0.8405,0.835,0.70644025,0.697225
10:19:24,30-Sep-21,0.8405,0.838,0.70644025,0.702244
10:19:24,30-Sep-21,0.8405,0.84,0.70644025,0.7056
10:19:24,30-Sep-21,0.8405,0.843,0.70644025,0.710649
10:19:24,30-Sep-21,0.836,0.845,0.698896,0.714025
10:19:24,30-Sep-21,0.836,0.848,0.698896,0.719104
10:19:24,30-Sep-21,0.836,0.85,0.698896,0.7225
10:19:24,30-Sep-21,0.836,0.852,0.698896,0.725904
10:19:24,30-Sep-21,0.836,0.854,0.698896,0.729316
10:19:24,30-Sep-21,0.836,0.855,0.698896,0.731025
10:19:24,30-Sep-21,0.836,0.857,0.698896,0.734449
10:19:24,30-Sep-21,0.836,0.858,0.698896,0.736164
10:19:24,30-Sep-21,0.8455,0.86,0.71487025,0.7396
10:19:24,30-Sep-21,0.8455,0.861,0.71487025,0.741321
10:19:24,30-Sep-21,0.865,0.862,0.748225,0.743044
10:19:24,30-Sep-21,0.865,0.863,0.748225,0.744769
10:19:24,30-Sep-21,0.875,0.864,0.765625,0.746496
10:19:24,30-Sep-21,0.875,0.864,0.765625,0.746496
10:19:24,30-Sep-21,0.875,0.865,0.765625,0.748225
10:19:24,30-Sep-21,0.875,0.866,0.765625,0.749956
10:19:24,30-Sep-21,0.88,0.866,0.7744,0.749956
10:19:24,30-Sep-21,0.88,0.867,0.7744,0.751689
10:19:24,30-Sep-21,0.88,0.867,0.7744,0.751689
10:19:24,30-Sep-21,0.875,0.867,0.765625,0.751689
10:19:24,30-Sep-21,0.875,0.867,0.765625,0.751689
10:19:24,30-Sep-21,0.875,0.867,0.765625,0.751689
10:19:24,30-Sep-21,0.875,0.868,0.765625,0.753424
10:19:24,30-Sep-21,0.865,0.868,0.748225,0.753424
10:19:24,30-Sep-21,0.865,0.868,0.748225,0.753424
10:19:24,30-Sep-21,0.865,0.868,0.748225,0.753424
10:19:24,30-Sep-21,0.865,0.868,0.748225,0.753424
10:19:24,30-Sep-21,0.865,0.868,0.748225,0.753424
10:19:24,30-Sep-21,0.865,0.868,0.748225,0.753424
10:19:24,30-Sep-21,0.865,0.868,0.748225,0.753424
10:19:24,30-Sep-21,0.865,0.868,0.748225,0.753424
10:19:24,30-Sep-21,0.86,0.868,0.7396,0.753424
10:19:24,30-Sep-21,0.86,0.868,0.7396,0.753424
10:19:24,30-Sep-21,0.86,0.868,0.7396,0.753424
10:19:24,30-Sep-21,0.8555,0.868,0.73188025,0.753424
10:19:24,30-Sep-21,0.8555,0.868,0.73188025,0.753424
10:19:24,30-Sep-21,0.8555,0.868,0.73188025,0.753424
10:19:24,30-Sep-21,0.8555,0.868,0.73188025,0.753424
10:19:24,30-Sep-21,0.8555,0.869,0.73188025,0.755161
10:19:24,30-Sep-21,0.86,0.869,0.7396,0.755161
10:19:24,30-Sep-21,0.86,0.869,0.7396,0.755161
10:19:24,30-Sep-21,0.87,0.87,0.7569,0.7569
10:19:24,30-Sep-21,0.87,0.87,0.7569,0.7569
10:19:24,30-Sep-21,0.87,0.871,0.7569,0.758641
10:19:24,30-Sep-21,0.8895,0.871,0.79121025,0.758641
10:19:24,30-Sep-21,0.8895,0.872,0.79121025,0.760384
10:19:24,30-Sep-21,0.8895,0.872,0.79121025,0.760384
10:19:24,30-Sep-21,0.8895,0.873,0.79121025,0.762129
10:19:24,30-Sep-21,0.8895,0.873,0.79121025,0.762129
10:19:24,30-Sep-21,0.8895,0.874,0.79121025,0.763876
10:19:24,30-Sep-21,0.8845,0.875,0.78234025,0.765625
10:19:24,30-Sep-21,0.8845,0.875,0.78234025,0.765625
10:19:24,30-Sep-21,0.8845,0.876,0.78234025,0.767376
10:19:24,30-Sep-21,0.8845,0.877,0.78234025,0.769129
10:19:24,30-Sep-21,0.8845,0.877,0.78234025,0.769129
10:19:24,30-Sep-21,0.87,0.878,0.7569,0.770884
10:19:24,30-Sep-21,0.87,0.879,0.7569,0.772641
10:19:24,30-Sep-21,0.87,0.88,0.7569,0.7744
10:19:24,30-Sep-21,0.87,0.881,0.7569,0.776161
10:19:24,30-Sep-21,0.87,0.881,0.7569,0.776161
10:19:24,30-Sep-21,0.87,0.882,0.7569,0.777924
10:19:24,30-Sep-21,0.87,0.883,0.7569,0.779689
10:19:24,30-Sep-21,0.87,0.884,0.7569,0.781456
10:19:24,30-Sep-21,0.87,0.885,0.7569,0.783225
10:19:24,30-Sep-21,0.875,0.886,0.765625,0.784996
10:19:24,30-Sep-21,0.875,0.887,0.765625,0.786769
10:19:24,30-Sep-21,0.875,0.888,0.765625,0.788544
10:19:24,30-Sep-21,0.8945,0.889,0.80013025,0.790321
10:19:24,30-Sep-21,0.8945,0.891,0.80013025,0.793881
10:19:24,30-Sep-21,0.8945,0.892,0.80013025,0.795664
10:19:24,30-Sep-21,0.8945,0.893,0.80013025,0.797449
10:19:24,30-Sep-21,0.8945,0.894,0.80013025,0.799236
10:19:24,30-Sep-21,0.904,0.895,0.817216,0.801025
10:19:24,30-Sep-21,0.904,0.895,0.817216,0.801025
10:19:24,30-Sep-21,0.904,0.896,0.817216,0.802816
10:19:24,30-Sep-21,0.909,0.897,0.826281,0.804609
10:19:24,30-Sep-21,0.909,0.898,0.826281,0.806404
10:19:24,30-Sep-21,0.909,0.899,0.826281,0.808201
10:19:24,30-Sep-21,0.914,0.899,0.835396,0.808201
10:19:24,30-Sep-21,0.914,0.9,0.835396,0.81
10:19:24,30-Sep-21,0.914,0.9,0.835396,0.81
10:19:24,30-Sep-21,0.909,0.901,0.826281,0.811801
10:19:24,30-Sep-21,0.909,0.901,0.826281,0.811801
10:19:24,30-Sep-21,0.8995,0.901,0.80910025,0.811801
10:19:24,30-Sep-21,0.8995,0.902,0.80910025,0.813604
10:19:24,30-Sep-21,0.8995,0.902,0.80910025,0.813604
10:19:24,30-Sep-21,0.8995,0.902,0.80910025,0.813604
10:19:24,30-Sep-21,0.8995,0.902,0.80910025,0.813604
10:19:24,30-Sep-21,0.8995,0.902,0.80910025,0.813604
10:19:24,30-Sep-21,0.8995,0.901,0.80910025,0.811801
10:19:24,30-Sep-21,0.8845,0.901,0.78234025,0.811801
10:19:24,30-Sep-21,0.8845,0.901,0.78234025,0.811801
10:19:24,30-Sep-21,0.88,0.9,0.7744,0.81
10:19:24,30-Sep-21,0.88,0.9,0.7744,0.81
10:19:24,30-Sep-21,0.88,0.899,0.7744,0.808201
10:19:24,30-Sep-21,0.88,0.898,0.7744,0.806404
10:19:24,30-Sep-21,0.88,0.897,0.7744,0.804609
10:19:24,30-Sep-21,0.88,0.896,0.7744,0.802816
10:19:24,30-Sep-21,0.88,0.895,0.7744,0.801025
10:19:24,30-Sep-21,0.8845,0.894,0.78234025,0.799236
10:19:24,30-Sep-21,0.8845,0.892,0.78234025,0.795664
10:19:24,30-Sep-21,0.8845,0.89,0.78234025,0.7921
10:19:24,30-Sep-21,0.8845,0.889,0.78234025,0.790321
10:19:24,30-Sep-21,0.8845,0.886,0.78234025,0.784996
10:19:24,30-Sep-21,0.8895,0.884,0.79121025,0.781456
10:19:24,30-Sep-21,0.8895,0.882,0.79121025,0.777924
10:19:24,30-Sep-21,0.8895,0.879,0.79121025,0.772641
10:19:24,30-Sep-21,0.904,0.876,0.817216,0.767376
10:19:24,30-Sep-21,0.904,0.873,0.817216,0.762129
10:19:24,30-Sep-21,0.904,0.87,0.817216,0.7569
10:19:24,30-Sep-21,0.8995,0.866,0.80910025,0.749956
10:19:24,30-Sep-21,0.8995,0.863,0.80910025,0.744769
10:19:24,30-Sep-21,0.8995,0.859,0.80910025,0.737881
10:19:24,30-Sep-21,0.8995,0.855,0.80910025,0.731025
10:19:24,30-Sep-21,0.8845,0.851,0.78234025,0.724201
10:19:24,30-Sep-21,0.8845,0.846,0.78234025,0.715716
10:19:25,30-Sep-21,0.8405,0.842,0.70644025,0.708964
10:19:25,30-Sep-21,0.8405,0.837,0.70644025,0.700569
10:19:25,30-Sep-21,0.8405,0.832,0.70644025,0.692224
10:19:25,30-Sep-21,0.8115,0.828,0.65853225,0.685584
10:19:25,30-Sep-21,0.787,0.823,0.619369,0.677329
10:19:25,30-Sep-21,0.787,0.818,0.619369,0.669124
10:19:25,30-Sep-21,0.787,0.814,0.619369,0.662596
10:19:25,30-Sep-21,0.787,0.809,0.619369,0.654481
10:19:25,30-Sep-21,0.772,0.804,0.595984,0.646416
10:19:25,30-Sep-21,0.772,0.8,0.595984,0.64
10:19:25,30-Sep-21,0.7625,0.795,0.58140625,0.632025
10:19:25,30-Sep-21,0.7625,0.791,0.58140625,0.625681
10:19:25,30-Sep-21,0.7675,0.787,0.58905625,0.619369
10:19:25,30-Sep-21,0.7675,0.783,0.58905625,0.613089
10:19:25,30-Sep-21,0.772,0.779,0.595984,0.606841
10:19:25,30-Sep-21,0.772,0.775,0.595984,0.600625
10:19:25,30-Sep-21,0.772,0.771,0.595984,0.594441
10:19:25,30-Sep-21,0.772,0.768,0.595984,0.589824
10:19:25,30-Sep-21,0.772,0.765,0.595984,0.585225
10:19:25,30-Sep-21,0.772,0.761,0.595984,0.579121
10:19:25,30-Sep-21,0.772,0.758,0.595984,0.574564
10:19:25,30-Sep-21,0.7675,0.756,0.58905625,0.571536
10:19:25,30-Sep-21,0.7675,0.753,0.58905625,0.567009
10:19:25,30-Sep-21,0.7575,0.75,0.57380625,0.5625
10:19:25,30-Sep-21,0.7575,0.748,0.57380625,0.559504
10:19:25,30-Sep-21,0.748,0.746,0.559504,0.556516
10:19:25,30-Sep-21,0.748,0.744,0.559504,0.553536
10:19:25,30-Sep-21,0.733,0.742,0.537289,0.550564
10:19:25,30-Sep-21,0.733,0.74,0.537289,0.5476
10:19:25,30-Sep-21,0.733,0.738,0.537289,0.544644
10:19:25,30-Sep-21,0.733,0.737,0.537289,0.543169
10:19:25,30-Sep-21,0.733,0.735,0.537289,0.540225
10:19:25,30-Sep-21,0.7285,0.734,0.53071225,0.538756
10:19:25,30-Sep-21,0.7285,0.733,0.53071225,0.537289
10:19:25,30-Sep-21,0.7235,0.731,0.52345225,0.534361
10:19:25,30-Sep-21,0.7235,0.73,0.52345225,0.5329
10:19:25,30-Sep-21,0.7185,0.729,0.51624225,0.531441
10:19:25,30-Sep-21,0.7185,0.728,0.51624225,0.529984
10:19:25,30-Sep-21,0.7235,0.727,0.52345225,0.528529
10:19:25,30-Sep-21,0.7235,0.726,0.52345225,0.527076
10:19:25,30-Sep-21,0.7235,0.725,0.52345225,0.525625
10:19:25,30-Sep-21,0.738,0.725,0.544644,0.525625
10:19:25,30-Sep-21,0.738,0.724,0.544644,0.524176
10:19:25,30-Sep-21,0.738,0.723,0.544644,0.522729
10:19:25,30-Sep-21,0.743,0.722,0.552049,0.521284
10:19:25,30-Sep-21,0.743,0.721,0.552049,0.519841
10:19:25,30-Sep-21,0.738,0.72,0.544644,0.5184
10:19:25,30-Sep-21,0.738,0.72,0.544644,0.5184
10:19:25,30-Sep-21,0.733,0.719,0.537289,0.516961
10:19:25,30-Sep-21,0.733,0.718,0.537289,0.515524
10:19:25,30-Sep-21,0.7185,0.717,0.51624225,0.514089
10:19:25,30-Sep-21,0.7185,0.716,0.51624225,0.512656
10:19:25,30-Sep-21,0.7085,0.715,0.50197225,0.511225
10:19:25,30-Sep-21,0.7085,0.714,0.50197225,0.509796
10:19:25,30-Sep-21,0.7085,0.714,0.50197225,0.509796
10:19:25,30-Sep-21,0.704,0.713,0.495616,0.508369
10:19:25,30-Sep-21,0.704,0.712,0.495616,0.506944
10:19:25,30-Sep-21,0.704,0.711,0.495616,0.505521
10:19:25,30-Sep-21,0.704,0.711,0.495616,0.505521
10:19:25,30-Sep-21,0.694,0.71,0.481636,0.5041
10:19:25,30-Sep-21,0.694,0.709,0.481636,0.502681
10:19:25,30-Sep-21,0.689,0.709,0.474721,0.502681
10:19:25,30-Sep-21,0.699,0.708,0.488601,0.501264
10:19:25,30-Sep-21,0.699,0.708,0.488601,0.501264
10:19:25,30-Sep-21,0.699,0.707,0.488601,0.499849
10:19:25,30-Sep-21,0.704,0.707,0.495616,0.499849
10:19:25,30-Sep-21,0.704,0.706,0.495616,0.498436
10:19:25,30-Sep-21,0.704,0.706,0.495616,0.498436
10:19:25,30-Sep-21,0.704,0.706,0.495616,0.498436
10:19:25,30-Sep-21,0.7135,0.705,0.50908225,0.497025
10:19:25,30-Sep-21,0.7135,0.705,0.50908225,0.497025
10:19:25,30-Sep-21,0.7185,0.705,0.51624225,0.497025
10:19:25,30-Sep-21,0.7185,0.705,0.51624225,0.497025
10:19:25,30-Sep-21,0.7135,0.705,0.50908225,0.497025
10:19:25,30-Sep-21,0.7135,0.705,0.50908225,0.497025
10:19:25,30-Sep-21,0.7135,0.705,0.50908225,0.497025
10:19:25,30-Sep-21,0.7135,0.705,0.50908225,0.497025
10:19:25,30-Sep-21,0.7135,0.705,0.50908225,0.497025
10:19:25,30-Sep-21,0.7135,0.705,0.50908225,0.497025
10:19:25,30-Sep-21,0.7135,0.705,0.50908225,0.497025
10:19:25,30-Sep-21,0.7135,0.705,0.50908225,0.497025
10:19:25,30-Sep-21,0.7135,0.706,0.50908225,0.498436
10:19:25,30-Sep-21,0.699,0.706,0.488601,0.498436
10:19:25,30-Sep-21,0.699,0.706,0.488601,0.498436
10:19:25,30-Sep-21,0.699,0.707,0.488601,0.499849
10:19:25,30-Sep-21,0.699,0.707,0.488601,0.499849
10:19:25,30-Sep-21,0.699,0.708,0.488601,0.501264
10:19:25,30-Sep-21,0.699,0.708,0.488601,0.501264
10:19:25,30-Sep-21,0.694,0.709,0.481636,0.502681
10:19:25,30-Sep-21,0.694,0.71,0.481636,0.5041
10:19:25,30-Sep-21,0.694,0.711,0.481636,0.505521
10:19:25,30-Sep-21,0.704,0.711,0.495616,0.505521
10:19:25,30-Sep-21,0.704,0.712,0.495616,0.506944
10:19:25,30-Sep-21,0.704,0.713,0.495616,0.508369
10:19:25,30-Sep-21,0.704,0.714,0.495616,0.509796
10:19:25,30-Sep-21,0.704,0.715,0.495616,0.511225
10:19:25,30-Sep-21,0.7235,0.716,0.52345225,0.512656
10:19:25,30-Sep-21,0.7235,0.717,0.52345225,0.514089
10:19:25,30-Sep-21,0.7235,0.719,0.52345225,0.516961
10:19:25,30-Sep-21,0.7285,0.72,0.53071225,0.5184
10:19:25,30-Sep-21,0.7285,0.721,0.53071225,0.519841
10:19:25,30-Sep-21,0.7285,0.722,0.53071225,0.521284
10:19:25,30-Sep-21,0.738,0.723,0.544644,0.522729
10:19:25,30-Sep-21,0.738,0.724,0.544644,0.524176
10:19:25,30-Sep-21,0.738,0.725,0.544644,0.525625
10:19:25,30-Sep-21,0.738,0.726,0.544644,0.527076
10:19:25,30-Sep-21,0.738,0.727,0.544644,0.528529
10:19:25,30-Sep-21,0.733,0.728,0.537289,0.529984
10:19:25,30-Sep-21,0.733,0.729,0.537289,0.531441
10:19:25,30-Sep-21,0.733,0.73,0.537289,0.5329
10:19:25,30-Sep-21,0.733,0.731,0.537289,0.534361
10:19:25,30-Sep-21,0.733,0.732,0.537289,0.535824
10:19:25,30-Sep-21,0.733,0.733,0.537289,0.537289
10:19:25,30-Sep-21,0.733,0.733,0.537289,0.537289
10:19:25,30-Sep-21,0.733,0.734,0.537289,0.538756
10:19:25,30-Sep-21,0.7285,0.735,0.53071225,0.540225
10:19:25,30-Sep-21,0.7285,0.736,0.53071225,0.541696
10:19:25,30-Sep-21,0.7235,0.736,0.52345225,0.541696
10:19:25,30-Sep-21,0.7235,0.737,0.52345225,0.543169
10:19:25,30-Sep-21,0.7235,0.737,0.52345225,0.543169
10:19:25,30-Sep-21,0.7235,0.738,0.52345225,0.544644
10:19:25,30-Sep-21,0.7235,0.739,0.52345225,0.546121
10:19:25,30-Sep-21,0.7285,0.739,0.53071225,0.546121
10:19:25,30-Sep-21,0.7285,0.739,0.53071225,0.546121
10:19:25,30-Sep-21,0.733,0.74,0.537289,0.5476
10:19:25,30-Sep-21,0.733,0.74,0.537289,0.5476
10:19:25,30-Sep-21,0.7525,0.74,0.56625625,0.5476
10:19:25,30-Sep-21,0.7525,0.74,0.56625625,0.5476
10:19:25,30-Sep-21,0.7525,0.741,0.56625625,0.549081
10:19:25,30-Sep-21,0.7525,0.741,0.56625625,0.549081
10:19:25,30-Sep-21,0.7525,0.741,0.56625625,0.549081
10:19:25,30-Sep-21,0.7525,0.74,0.56625625,0.5476
10:19:25,30-Sep-21,0.7525,0.74,0.56625625,0.5476
10:19:25,30-Sep-21,0.7525,0.74,0.56625625,0.5476
10:19:25,30-Sep-21,0.748,0.74,0.559504,0.5476
10:19:25,30-Sep-21,0.748,0.739,0.559504,0.546121
10:19:25,30-Sep-21,0.743,0.739,0.552049,0.546121
10:19:25,30-Sep-21,0.743,0.738,0.552049,0.544644
10:19:25,30-Sep-21,0.733,0.737,0.537289,0.543169
10:19:25,30-Sep-21,0.733,0.737,0.537289,0.543169
10:19:26,30-Sep-21,0.7285,0.736,0.53071225,0.541696
10:19:26,30-Sep-21,0.7285,0.735,0.53071225,0.540225
10:19:26,30-Sep-21,0.7285,0.734,0.53071225,0.538756
10:19:26,30-Sep-21,0.7285,0.733,0.53071225,0.537289
10:19:26,30-Sep-21,0.7185,0.732,0.51624225,0.535824
10:19:26,30-Sep-21,0.7185,0.731,0.51624225,0.534361
10:19:26,30-Sep-21,0.7135,0.73,0.50908225,0.5329
10:19:26,30-Sep-21,0.7135,0.729,0.50908225,0.531441
10:19:26,30-Sep-21,0.7135,0.727,0.50908225,0.528529
10:19:26,30-Sep-21,0.7235,0.726,0.52345225,0.527076
10:19:26,30-Sep-21,0.7285,0.725,0.53071225,0.525625
10:19:26,30-Sep-21,0.7285,0.723,0.53071225,0.522729
10:19:26,30-Sep-21,0.733,0.722,0.537289,0.521284
10:19:26,30-Sep-21,0.733,0.721,0.537289,0.519841
10:19:26,30-Sep-21,0.733,0.719,0.537289,0.516961
10:19:26,30-Sep-21,0.733,0.718,0.537289,0.515524
10:19:26,30-Sep-21,0.7285,0.716,0.53071225,0.512656
10:19:26,30-Sep-21,0.7285,0.714,0.53071225,0.509796
10:19:26,30-Sep-21,0.7235,0.713,0.52345225,0.508369
10:19:26,30-Sep-21,0.7235,0.711,0.52345225,0.505521
10:19:26,30-Sep-21,0.7135,0.71,0.50908225,0.5041
10:19:26,30-Sep-21,0.7135,0.708,0.50908225,0.501264
10:19:26,30-Sep-21,0.704,0.706,0.495616,0.498436
10:19:26,30-Sep-21,0.704,0.705,0.495616,0.497025
10:19:26,30-Sep-21,0.704,0.703,0.495616,0.494209
10:19:26,30-Sep-21,0.704,0.702,0.495616,0.492804
10:19:26,30-Sep-21,0.689,0.7,0.474721,0.49
10:19:26,30-Sep-21,0.689,0.699,0.474721,0.488601
10:19:26,30-Sep-21,0.689,0.698,0.474721,0.487204
10:19:26,30-Sep-21,0.689,0.696,0.474721,0.484416
10:19:26,30-Sep-21,0.689,0.695,0.474721,0.483025
10:19:26,30-Sep-21,0.689,0.694,0.474721,0.481636
10:19:26,30-Sep-21,0.6845,0.693,0.46854025,0.480249
10:19:26,30-Sep-21,0.6845,0.692,0.46854025,0.478864
10:19:26,30-Sep-21,0.6845,0.691,0.46854025,0.477481
10:19:26,30-Sep-21,0.6795,0.69,0.46172025,0.4761
10:19:26,30-Sep-21,0.6795,0.69,0.46172025,0.4761
10:19:26,30-Sep-21,0.6745,0.689,0.45495025,0.474721
10:19:26,30-Sep-21,0.6745,0.688,0.45495025,0.473344
10:19:26,30-Sep-21,0.6745,0.688,0.45495025,0.473344
10:19:26,30-Sep-21,0.689,0.687,0.474721,0.471969
10:19:26,30-Sep-21,0.689,0.687,0.474721,0.471969
10:19:26,30-Sep-21,0.689,0.686,0.474721,0.470596
10:19:26,30-Sep-21,0.689,0.686,0.474721,0.470596
10:19:26,30-Sep-21,0.689,0.686,0.474721,0.470596
10:19:26,30-Sep-21,0.689,0.686,0.474721,0.470596
10:19:26,30-Sep-21,0.694,0.685,0.481636,0.469225
10:19:26,30-Sep-21,0.694,0.685,0.481636,0.469225
10:19:26,30-Sep-21,0.694,0.685,0.481636,0.469225
10:19:26,30-Sep-21,0.694,0.685,0.481636,0.469225
10:19:26,30-Sep-21,0.694,0.685,0.481636,0.469225
10:19:26,30-Sep-21,0.694,0.685,0.481636,0.469225
10:19:26,30-Sep-21,0.694,0.684,0.481636,0.467856
10:19:26,30-Sep-21,0.694,0.684,0.481636,0.467856
10:19:26,30-Sep-21,0.694,0.684,0.481636,0.467856
10:19:26,30-Sep-21,0.694,0.684,0.481636,0.467856
10:19:26,30-Sep-21,0.694,0.684,0.481636,0.467856
10:19:26,30-Sep-21,0.6845,0.684,0.46854025,0.467856
10:19:26,30-Sep-21,0.6845,0.684,0.46854025,0.467856
10:19:26,30-Sep-21,0.6845,0.684,0.46854025,0.467856
10:19:26,30-Sep-21,0.6845,0.683,0.46854025,0.466489
10:19:26,30-Sep-21,0.6845,0.683,0.46854025,0.466489
10:19:26,30-Sep-21,0.6845,0.683,0.46854025,0.466489
10:19:26,30-Sep-21,0.6845,0.683,0.46854025,0.466489
10:19:26,30-Sep-21,0.6845,0.683,0.46854025,0.466489
10:19:26,30-Sep-21,0.6745,0.683,0.45495025,0.466489
10:19:26,30-Sep-21,0.6745,0.683,0.45495025,0.466489
10:19:26,30-Sep-21,0.6745,0.683,0.45495025,0.466489
10:19:26,30-Sep-21,0.6695,0.683,0.44823025,0.466489
10:19:26,30-Sep-21,0.6695,0.684,0.44823025,0.467856
10:19:26,30-Sep-21,0.6745,0.684,0.45495025,0.467856
10:19:26,30-Sep-21,0.6745,0.684,0.45495025,0.467856
10:19:26,30-Sep-21,0.6745,0.684,0.45495025,0.467856
10:19:26,30-Sep-21,0.6795,0.685,0.46172025,0.469225
10:19:26,30-Sep-21,0.6795,0.685,0.46172025,0.469225
10:19:26,30-Sep-21,0.6795,0.685,0.46172025,0.469225
10:19:26,30-Sep-21,0.6795,0.686,0.46172025,0.470596
10:19:26,30-Sep-21,0.6795,0.686,0.46172025,0.470596
10:19:26,30-Sep-21,0.6795,0.687,0.46172025,0.471969
10:19:26,30-Sep-21,0.6845,0.687,0.46854025,0.471969
10:19:26,30-Sep-21,0.6845,0.687,0.46854025,0.471969
10:19:26,30-Sep-21,0.699,0.688,0.488601,0.473344
10:19:26,30-Sep-21,0.699,0.688,0.488601,0.473344
10:19:26,30-Sep-21,0.699,0.689,0.488601,0.474721
10:19:26,30-Sep-21,0.699,0.689,0.488601,0.474721
10:19:26,30-Sep-21,0.699,0.689,0.488601,0.474721
10:19:26,30-Sep-21,0.699,0.69,0.488601,0.4761
10:19:26,30-Sep-21,0.699,0.69,0.488601,0.4761
10:19:26,30-Sep-21,0.699,0.69,0.488601,0.4761
10:19:26,30-Sep-21,0.699,0.69,0.488601,0.4761
10:19:26,30-Sep-21,0.699,0.691,0.488601,0.477481
10:19:26,30-Sep-21,0.699,0.691,0.488601,0.477481
10:19:26,30-Sep-21,0.699,0.691,0.488601,0.477481
10:19:26,30-Sep-21,0.699,0.691,0.488601,0.477481
10:19:26,30-Sep-21,0.689,0.691,0.474721,0.477481
10:19:26,30-Sep-21,0.689,0.691,0.474721,0.477481
10:19:26,30-Sep-21,0.689,0.691,0.474721,0.477481
10:19:26,30-Sep-21,0.689,0.691,0.474721,0.477481
10:19:26,30-Sep-21,0.6795,0.691,0.46172025,0.477481
10:19:26,30-Sep-21,0.6795,0.691,0.46172025,0.477481
10:19:26,30-Sep-21,0.6795,0.691,0.46172025,0.477481
10:19:26,30-Sep-21,0.6795,0.691,0.46172025,0.477481
10:19:26,30-Sep-21,0.6795,0.691,0.46172025,0.477481
10:19:26,30-Sep-21,0.6795,0.691,0.46172025,0.477481
10:19:26,30-Sep-21,0.6795,0.69,0.46172025,0.4761
10:19:26,30-Sep-21,0.6845,0.69,0.46854025,0.4761
10:19:26,30-Sep-21,0.6845,0.69,0.46854025,0.4761
10:19:26,30-Sep-21,0.694,0.69,0.481636,0.4761
10:19:26,30-Sep-21,0.694,0.69,0.481636,0.4761
10:19:26,30-Sep-21,0.699,0.69,0.488601,0.4761
10:19:26,30-Sep-21,0.704,0.69,0.495616,0.4761
10:19:26,30-Sep-21,0.704,0.69,0.495616,0.4761
10:19:26,30-Sep-21,0.704,0.69,0.495616,0.4761
10:19:26,30-Sep-21,0.704,0.69,0.495616,0.4761
10:19:26,30-Sep-21,0.704,0.69,0.495616,0.4761
10:19:26,30-Sep-21,0.704,0.69,0.495616,0.4761
10:19:26,30-Sep-21,0.694,0.69,0.481636,0.4761
10:19:26,30-Sep-21,0.694,0.69,0.481636,0.4761
10:19:26,30-Sep-21,0.689,0.69,0.474721,0.4761
10:19:26,30-Sep-21,0.6795,0.69,0.46172025,0.4761
10:19:26,30-Sep-21,0.6795,0.69,0.46172025,0.4761
10:19:26,30-Sep-21,0.6795,0.69,0.46172025,0.4761
10:19:26,30-Sep-21,0.6795,0.691,0.46172025,0.477481
10:19:26,30-Sep-21,0.6795,0.691,0.46172025,0.477481
10:19:26,30-Sep-21,0.6795,0.691,0.46172025,0.477481
10:19:26,30-Sep-21,0.6795,0.691,0.46172025,0.477481
10:19:26,30-Sep-21,0.6795,0.692,0.46172025,0.478864
10:19:26,30-Sep-21,0.6845,0.692,0.46854025,0.478864
10:19:26,30-Sep-21,0.6845,0.693,0.46854025,0.480249
10:19:26,30-Sep-21,0.6845,0.693,0.46854025,0.480249
10:19:26,30-Sep-21,0.689,0.694,0.474721,0.481636
10:19:26,30-Sep-21,0.689,0.694,0.474721,0.481636
10:19:26,30-Sep-21,0.689,0.695,0.474721,0.483025
10:19:26,30-Sep-21,0.689,0.696,0.474721,0.484416
10:19:26,30-Sep-21,0.704,0.696,0.495616,0.484416
10:19:26,30-Sep-21,0.704,0.697,0.495616,0.485809
10:19:26,30-Sep-21,0.7135,0.698,0.50908225,0.487204
10:19:26,30-Sep-21,0.7135,0.698,0.50908225,0.487204
10:19:26,30-Sep-21,0.7135,0.699,0.50908225,0.488601
10:19:26,30-Sep-21,0.7135,0.7,0.50908225,0.49
10:19:26,30-Sep-21,0.7135,0.7,0.50908225,0.49
10:19:26,30-Sep-21,0.7135,0.701,0.50908225,0.491401
10:19:26,30-Sep-21,0.7085,0.701,0.50197225,0.491401
10:19:26,30-Sep-21,0.7085,0.702,0.50197225,0.492804
10:19:26,30-Sep-21,0.7085,0.703,0.50197225,0.494209
10:19:26,30-Sep-21,0.7085,0.703,0.50197225,0.494209
10:19:26,30-Sep-21,0.704,0.704,0.495616,0.495616
10:19:26,30-Sep-21,0.704,0.704,0.495616,0.495616
10:19:27,30-Sep-21,0.699,0.705,0.488601,0.497025
10:19:27,30-Sep-21,0.699,0.705,0.488601,0.497025
10:19:27,30-Sep-21,0.699,0.706,0.488601,0.498436
10:19:27,30-Sep-21,0.694,0.706,0.481636,0.498436
10:19:27,30-Sep-21,0.694,0.707,0.481636,0.499849
10:19:27,30-Sep-21,0.694,0.707,0.481636,0.499849
10:19:27,30-Sep-21,0.694,0.708,0.481636,0.501264
10:19:27,30-Sep-21,0.704,0.708,0.495616,0.501264
10:19:27,30-Sep-21,0.704,0.709,0.495616,0.502681
10:19:27,30-Sep-21,0.704,0.709,0.495616,0.502681
10:19:27,30-Sep-21,0.704,0.71,0.495616,0.5041
10:19:27,30-Sep-21,0.7085,0.71,0.50197225,0.5041
10:19:27,30-Sep-21,0.7085,0.711,0.50197225,0.505521
10:19:27,30-Sep-21,0.7235,0.711,0.52345225,0.505521
10:19:27,30-Sep-21,0.7235,0.712,0.52345225,0.506944
10:19:27,30-Sep-21,0.7285,0.712,0.53071225,0.506944
10:19:27,30-Sep-21,0.7285,0.713,0.53071225,0.508369
10:19:27,30-Sep-21,0.7235,0.713,0.52345225,0.508369
10:19:27,30-Sep-21,0.7235,0.714,0.52345225,0.509796
10:19:27,30-Sep-21,0.7235,0.714,0.52345225,0.509796
10:19:27,30-Sep-21,0.7235,0.715,0.52345225,0.511225
10:19:27,30-Sep-21,0.7185,0.715,0.51624225,0.511225
10:19:27,30-Sep-21,0.7135,0.716,0.50908225,0.512656
10:19:27,30-Sep-21,0.7135,0.716,0.50908225,0.512656
10:19:27,30-Sep-21,0.7135,0.717,0.50908225,0.514089
10:19:27,30-Sep-21,0.704,0.717,0.495616,0.514089
10:19:27,30-Sep-21,0.704,0.718,0.495616,0.515524
10:19:27,30-Sep-21,0.7085,0.718,0.50197225,0.515524
10:19:27,30-Sep-21,0.7085,0.719,0.50197225,0.516961
10:19:27,30-Sep-21,0.7085,0.719,0.50197225,0.516961
10:19:27,30-Sep-21,0.7085,0.72,0.50197225,0.5184
10:19:27,30-Sep-21,0.7085,0.72,0.50197225,0.5184
10:19:27,30-Sep-21,0.7085,0.721,0.50197225,0.519841
10:19:27,30-Sep-21,0.7085,0.722,0.50197225,0.521284
10:19:27,30-Sep-21,0.7085,0.722,0.50197225,0.521284
10:19:27,30-Sep-21,0.7285,0.723,0.53071225,0.522729
10:19:27,30-Sep-21,0.733,0.723,0.537289,0.522729
10:19:27,30-Sep-21,0.733,0.724,0.537289,0.524176
10:19:27,30-Sep-21,0.738,0.725,0.544644,0.525625
10:19:27,30-Sep-21,0.738,0.725,0.544644,0.525625
10:19:27,30-Sep-21,0.738,0.726,0.544644,0.527076
10:19:27,30-Sep-21,0.738,0.726,0.544644,0.527076
10:19:27,30-Sep-21,0.738,0.727,0.544644,0.528529
10:19:27,30-Sep-21,0.738,0.727,0.544644,0.528529
10:19:27,30-Sep-21,0.738,0.728,0.544644,0.529984
10:19:27,30-Sep-21,0.738,0.728,0.544644,0.529984
10:19:27,30-Sep-21,0.733,0.729,0.537289,0.531441
10:19:27,30-Sep-21,0.733,0.729,0.537289,0.531441
10:19:27,30-Sep-21,0.733,0.729,0.537289,0.531441
10:19:27,30-Sep-21,0.7285,0.73,0.53071225,0.5329
10:19:27,30-Sep-21,0.7285,0.73,0.53071225,0.5329
10:19:27,30-Sep-21,0.7185,0.73,0.51624225,0.5329
10:19:27,30-Sep-21,0.7185,0.731,0.51624225,0.534361
10:19:27,30-Sep-21,0.7185,0.731,0.51624225,0.534361
10:19:27,30-Sep-21,0.7185,0.731,0.51624225,0.534361
10:19:27,30-Sep-21,0.7185,0.732,0.51624225,0.535824
10:19:27,30-Sep-21,0.7185,0.732,0.51624225,0.535824
10:19:27,30-Sep-21,0.7235,0.732,0.52345225,0.535824
10:19:27,30-Sep-21,0.7235,0.732,0.52345225,0.535824
10:19:27,30-Sep-21,0.7285,0.733,0.53071225,0.537289
10:19:27,30-Sep-21,0.7285,0.733,0.53071225,0.537289
10:19:27,30-Sep-21,0.738,0.733,0.544644,0.537289
10:19:27,30-Sep-21,0.738,0.733,0.544644,0.537289
10:19:27,30-Sep-21,0.743,0.733,0.552049,0.537289
10:19:27,30-Sep-21,0.743,0.734,0.552049,0.538756
10:19:27,30-Sep-21,0.743,0.734,0.552049,0.538756
10:19:27,30-Sep-21,0.743,0.734,0.552049,0.538756
10:19:27,30-Sep-21,0.743,0.734,0.552049,0.538756
10:19:27,30-Sep-21,0.743,0.734,0.552049,0.538756
10:19:27,30-Sep-21,0.743,0.734,0.552049,0.538756
10:19:27,30-Sep-21,0.743,0.734,0.552049,0.538756
10:19:27,30-Sep-21,0.738,0.734,0.544644,0.538756
10:19:27,30-Sep-21,0.738,0.734,0.544644,0.538756
10:19:27,30-Sep-21,0.7285,0.734,0.53071225,0.538756
10:19:27,30-Sep-21,0.7285,0.733,0.53071225,0.537289
10:19:27,30-Sep-21,0.7285,0.733,0.53071225,0.537289
10:19:27,30-Sep-21,0.7285,0.733,0.53071225,0.537289
10:19:27,30-Sep-21,0.7235,0.733,0.52345225,0.537289
10:19:27,30-Sep-21,0.7235,0.732,0.52345225,0.535824
10:19:27,30-Sep-21,0.7185,0.732,0.51624225,0.535824
10:19:27,30-Sep-21,0.7185,0.732,0.51624225,0.535824
10:19:27,30-Sep-21,0.7185,0.731,0.51624225,0.534361
10:19:27,30-Sep-21,0.7185,0.731,0.51624225,0.534361
10:19:27,30-Sep-21,0.7285,0.731,0.53071225,0.534361
10:19:27,30-Sep-21,0.7285,0.73,0.53071225,0.5329
10:19:27,30-Sep-21,0.7285,0.73,0.53071225,0.5329
10:19:27,30-Sep-21,0.733,0.729,0.537289,0.531441
10:19:27,30-Sep-21,0.733,0.728,0.537289,0.529984
10:19:27,30-Sep-21,0.733,0.728,0.537289,0.529984
10:19:27,30-Sep-21,0.733,0.727,0.537289,0.528529
10:19:27,30-Sep-21,0.733,0.726,0.537289,0.527076
10:19:27,30-Sep-21,0.733,0.725,0.537289,0.525625
10:19:27,30-Sep-21,0.738,0.725,0.544644,0.525625
10:19:27,30-Sep-21,0.738,0.724,0.544644,0.524176
10:19:27,30-Sep-21,0.738,0.723,0.544644,0.522729
10:19:27,30-Sep-21,0.7285,0.722,0.53071225,0.521284
10:19:27,30-Sep-21,0.7285,0.721,0.53071225,0.519841
10:19:27,30-Sep-21,0.7185,0.72,0.51624225,0.5184
10:19:27,30-Sep-21,0.7185,0.719,0.51624225,0.516961
10:19:27,30-Sep-21,0.7185,0.718,0.51624225,0.515524
10:19:27,30-Sep-21,0.7135,0.716,0.50908225,0.512656
10:19:27,30-Sep-21,0.7135,0.715,0.50908225,0.511225
10:19:27,30-Sep-21,0.7135,0.714,0.50908225,0.509796
10:19:27,30-Sep-21,0.7135,0.713,0.50908225,0.508369
10:19:27,30-Sep-21,0.7135,0.712,0.50908225,0.506944
10:19:27,30-Sep-21,0.7135,0.711,0.50908225,0.505521
10:19:27,30-Sep-21,0.7135,0.71,0.50908225,0.5041
10:19:27,30-Sep-21,0.704,0.709,0.495616,0.502681
10:19:27,30-Sep-21,0.704,0.708,0.495616,0.501264
10:19:27,30-Sep-21,0.704,0.707,0.495616,0.499849
10:19:27,30-Sep-21,0.704,0.706,0.495616,0.498436
10:19:27,30-Sep-21,0.704,0.706,0.495616,0.498436
10:19:27,30-Sep-21,0.699,0.705,0.488601,0.497025
10:19:27,30-Sep-21,0.699,0.704,0.488601,0.495616
10:19:27,30-Sep-21,0.699,0.704,0.488601,0.495616
10:19:27,30-Sep-21,0.699,0.703,0.488601,0.494209
10:19:27,30-Sep-21,0.699,0.703,0.488601,0.494209
10:19:27,30-Sep-21,0.699,0.702,0.488601,0.492804
10:19:27,30-Sep-21,0.699,0.702,0.488601,0.492804
10:19:27,30-Sep-21,0.699,0.702,0.488601,0.492804
10:19:27,30-Sep-21,0.699,0.702,0.488601,0.492804
10:19:27,30-Sep-21,0.699,0.702,0.488601,0.492804
10:19:27,30-Sep-21,0.699,0.702,0.488601,0.492804
10:19:27,30-Sep-21,0.699,0.702,0.488601,0.492804
10:19:27,30-Sep-21,0.699,0.702,0.488601,0.492804
10:19:27,30-Sep-21,0.699,0.703,0.488601,0.494209
10:19:27,30-Sep-21,0.699,0.703,0.488601,0.494209
10:19:27,30-Sep-21,0.699,0.703,0.488601,0.494209
10:19:27,30-Sep-21,0.699,0.704,0.488601,0.495616
10:19:27,30-Sep-21,0.699,0.704,0.488601,0.495616
10:19:27,30-Sep-21,0.699,0.705,0.488601,0.497025
10:19:27,30-Sep-21,0.699,0.705,0.488601,0.497025
10:19:27,30-Sep-21,0.699,0.706,0.488601,0.498436
10:19:27,30-Sep-21,0.699,0.706,0.488601,0.498436
10:19:27,30-Sep-21,0.7135,0.707,0.50908225,0.499849
10:19:27,30-Sep-21,0.7135,0.707,0.50908225,0.499849
10:19:27,30-Sep-21,0.7135,0.707,0.50908225,0.499849
10:19:27,30-Sep-21,0.7135,0.708,0.50908225,0.501264
10:19:27,30-Sep-21,0.7185,0.708,0.51624225,0.501264
10:19:27,30-Sep-21,0.7185,0.708,0.51624225,0.501264
10:19:27,30-Sep-21,0.7185,0.709,0.51624225,0.502681
10:19:27,30-Sep-21,0.7185,0.709,0.51624225,0.502681
10:19:27,30-Sep-21,0.7185,0.709,0.51624225,0.502681
10:19:27,30-Sep-21,0.7185,0.709,0.51624225,0.502681
10:19:27,30-Sep-21,0.7185,0.709,0.51624225,0.502681
10:19:27,30-Sep-21,0.7135,0.709,0.50908225,0.502681
10:19:27,30-Sep-21,0.7135,0.708,0.50908225,0.501264
10:19:27,30-Sep-21,0.7135,0.708,0.50908225,0.501264
10:19:27,30-Sep-21,0.7135,0.708,0.50908225,0.501264
10:19:27,30-Sep-21,0.7135,0.708,0.50908225,0.501264
10:19:27,30-Sep-21,0.7135,0.707,0.50908225,0.499849
10:19:27,30-Sep-21,0.7135,0.707,0.50908225,0.499849
10:19:27,30-Sep-21,0.7135,0.706,0.50908225,0.498436
10:19:27,30-Sep-21,0.704,0.706,0.495616,0.498436
10:19:27,30-Sep-21,0.704,0.705,0.495616,0.497025
10:19:27,30-Sep-21,0.704,0.705,0.495616,0.497025
10:19:27,30-Sep-21,0.699,0.704,0.488601,0.495616
10:19:27,30-Sep-21,0.699,0.704,0.488601,0.495616
10:19:27,30-Sep-21,0.699,0.703,0.488601,0.494209
10:19:27,30-Sep-21,0.689,0.703,0.474721,0.494209
10:19:27,30-Sep-21,0.689,0.702,0.474721,0.492804
10:19:27,30-Sep-21,0.689,0.702,0.474721,0.492804
10:19:27,30-Sep-21,0.689,0.701,0.474721,0.491401
10:19:28,30-Sep-21,0.689,0.701,0.474721,0.491401
10:19:28,30-Sep-21,0.689,0.7,0.474721,0.49
10:19:28,30-Sep-21,0.689,0.7,0.474721,0.49
10:19:28,30-Sep-21,0.689,0.7,0.474721,0.49
10:19:28,30-Sep-21,0.689,0.699,0.474721,0.488601
10:19:28,30-Sep-21,0.689,0.699,0.474721,0.488601
10:19:28,30-Sep-21,0.689,0.699,0.474721,0.488601
10:19:28,30-Sep-21,0.694,0.699,0.481636,0.488601
10:19:28,30-Sep-21,0.694,0.699,0.481636,0.488601
10:19:28,30-Sep-21,0.699,0.698,0.488601,0.487204
10:19:28,30-Sep-21,0.699,0.698,0.488601,0.487204
10:19:28,30-Sep-21,0.7135,0.698,0.50908225,0.487204
10:19:28,30-Sep-21,0.7135,0.698,0.50908225,0.487204
10:19:28,30-Sep-21,0.7135,0.698,0.50908225,0.487204
10:19:28,30-Sep-21,0.7135,0.698,0.50908225,0.487204
10:19:28,30-Sep-21,0.7135,0.697,0.50908225,0.485809
10:19:28,30-Sep-21,0.7135,0.697,0.50908225,0.485809
10:19:28,30-Sep-21,0.7135,0.697,0.50908225,0.485809
10:19:28,30-Sep-21,0.7085,0.697,0.50197225,0.485809
10:19:28,30-Sep-21,0.7085,0.697,0.50197225,0.485809
10:19:28,30-Sep-21,0.704,0.696,0.495616,0.484416
10:19:28,30-Sep-21,0.694,0.696,0.481636,0.484416
10:19:28,30-Sep-21,0.694,0.696,0.481636,0.484416
10:19:28,30-Sep-21,0.689,0.695,0.474721,0.483025
10:19:28,30-Sep-21,0.689,0.695,0.474721,0.483025
10:19:28,30-Sep-21,0.689,0.695,0.474721,0.483025
10:19:28,30-Sep-21,0.6845,0.695,0.46854025,0.483025
10:19:28,30-Sep-21,0.6845,0.694,0.46854025,0.481636
10:19:28,30-Sep-21,0.6845,0.694,0.46854025,0.481636
10:19:28,30-Sep-21,0.6845,0.694,0.46854025,0.481636
10:19:28,30-Sep-21,0.6795,0.694,0.46172025,0.481636
10:19:28,30-Sep-21,0.6795,0.694,0.46172025,0.481636
10:19:28,30-Sep-21,0.6845,0.693,0.46854025,0.480249
10:19:28,30-Sep-21,0.6845,0.693,0.46854025,0.480249
10:19:28,30-Sep-21,0.699,0.693,0.488601,0.480249
10:19:28,30-Sep-21,0.699,0.693,0.488601,0.480249
10:19:28,30-Sep-21,0.699,0.693,0.488601,0.480249
10:19:28,30-Sep-21,0.704,0.693,0.495616,0.480249
10:19:28,30-Sep-21,0.704,0.693,0.495616,0.480249
10:19:28,30-Sep-21,0.7085,0.693,0.50197225,0.480249
10:19:28,30-Sep-21,0.7085,0.693,0.50197225,0.480249
10:19:28,30-Sep-21,0.704,0.693,0.495616,0.480249
10:19:28,30-Sep-21,0.704,0.694,0.495616,0.481636
10:19:28,30-Sep-21,0.699,0.694,0.488601,0.481636
10:19:28,30-Sep-21,0.699,0.694,0.488601,0.481636
10:19:28,30-Sep-21,0.699,0.695,0.488601,0.483025
10:19:28,30-Sep-21,0.694,0.695,0.481636,0.483025
10:19:28,30-Sep-21,0.694,0.695,0.481636,0.483025
10:19:28,30-Sep-21,0.694,0.696,0.481636,0.484416
10:19:28,30-Sep-21,0.694,0.697,0.481636,0.485809
10:19:28,30-Sep-21,0.6845,0.697,0.46854025,0.485809
10:19:28,30-Sep-21,0.6845,0.698,0.46854025,0.487204
10:19:28,30-Sep-21,0.6795,0.699,0.46172025,0.488601
10:19:28,30-Sep-21,0.6795,0.7,0.46172025,0.49
10:19:28,30-Sep-21,0.6795,0.701,0.46172025,0.491401
10:19:28,30-Sep-21,0.689,0.702,0.474721,0.492804
10:19:28,30-Sep-21,0.689,0.703,0.474721,0.494209
10:19:28,30-Sep-21,0.694,0.704,0.481636,0.495616
10:19:28,30-Sep-21,0.694,0.705,0.481636,0.497025
10:19:28,30-Sep-21,0.694,0.706,0.481636,0.498436
10:19:28,30-Sep-21,0.7185,0.707,0.51624225,0.499849
10:19:28,30-Sep-21,0.7185,0.708,0.51624225,0.501264
10:19:28,30-Sep-21,0.7235,0.709,0.52345225,0.502681
10:19:28,30-Sep-21,0.7235,0.71,0.52345225,0.5041
10:19:28,30-Sep-21,0.7235,0.712,0.52345225,0.506944
10:19:28,30-Sep-21,0.7235,0.713,0.52345225,0.508369
10:19:28,30-Sep-21,0.7235,0.714,0.52345225,0.509796
10:19:28,30-Sep-21,0.7285,0.715,0.53071225,0.511225
10:19:28,30-Sep-21,0.7285,0.716,0.53071225,0.512656
10:19:28,30-Sep-21,0.7285,0.717,0.53071225,0.514089
10:19:28,30-Sep-21,0.7185,0.718,0.51624225,0.515524
10:19:28,30-Sep-21,0.7185,0.718,0.51624225,0.515524
10:19:28,30-Sep-21,0.7185,0.719,0.51624225,0.516961
10:19:28,30-Sep-21,0.7185,0.72,0.51624225,0.5184
10:19:28,30-Sep-21,0.7185,0.72,0.51624225,0.5184
10:19:28,30-Sep-21,0.7185,0.721,0.51624225,0.519841
10:19:28,30-Sep-21,0.7135,0.721,0.50908225,0.519841
10:19:28,30-Sep-21,0.7135,0.722,0.50908225,0.521284
10:19:28,30-Sep-21,0.7135,0.722,0.50908225,0.521284
10:19:28,30-Sep-21,0.7135,0.722,0.50908225,0.521284
10:19:28,30-Sep-21,0.7085,0.722,0.50197225,0.521284
10:19:28,30-Sep-21,0.7085,0.722,0.50197225,0.521284
10:19:28,30-Sep-21,0.7185,0.722,0.51624225,0.521284
10:19:28,30-Sep-21,0.7185,0.722,0.51624225,0.521284
10:19:28,30-Sep-21,0.7185,0.722,0.51624225,0.521284
10:19:28,30-Sep-21,0.7235,0.721,0.52345225,0.519841
10:19:28,30-Sep-21,0.7235,0.721,0.52345225,0.519841
10:19:28,30-Sep-21,0.733,0.72,0.537289,0.5184
10:19:28,30-Sep-21,0.733,0.72,0.537289,0.5184
10:19:28,30-Sep-21,0.733,0.719,0.537289,0.516961
10:19:28,30-Sep-21,0.733,0.718,0.537289,0.515524
10:19:28,30-Sep-21,0.7235,0.717,0.52345225,0.514089
10:19:28,30-Sep-21,0.7235,0.716,0.52345225,0.512656
10:19:28,30-Sep-21,0.7235,0.715,0.52345225,0.511225
10:19:28,30-Sep-21,0.7235,0.714,0.52345225,0.509796
10:19:28,30-Sep-21,0.7185,0.712,0.51624225,0.506944
10:19:28,30-Sep-21,0.7185,0.711,0.51624225,0.505521
10:19:28,30-Sep-21,0.7135,0.71,0.50908225,0.5041
10:19:28,30-Sep-21,0.7135,0.708,0.50908225,0.501264
10:19:28,30-Sep-21,0.699,0.707,0.488601,0.499849
10:19:28,30-Sep-21,0.699,0.705,0.488601,0.497025
10:19:28,30-Sep-21,0.699,0.704,0.488601,0.495616
10:19:28,30-Sep-21,0.694,0.702,0.481636,0.492804
10:19:28,30-Sep-21,0.694,0.7,0.481636,0.49
10:19:28,30-Sep-21,0.694,0.699,0.481636,0.488601
10:19:28,30-Sep-21,0.6845,0.697,0.46854025,0.485809
10:19:28,30-Sep-21,0.6845,0.696,0.46854025,0.484416
10:19:28,30-Sep-21,0.6795,0.694,0.46172025,0.481636
10:19:28,30-Sep-21,0.6795,0.693,0.46172025,0.480249
10:19:28,30-Sep-21,0.6795,0.692,0.46172025,0.478864
10:19:28,30-Sep-21,0.694,0.69,0.481636,0.4761
10:19:28,30-Sep-21,0.694,0.689,0.481636,0.474721
10:19:28,30-Sep-21,0.689,0.688,0.474721,0.473344
10:19:28,30-Sep-21,0.689,0.687,0.474721,0.471969
10:19:28,30-Sep-21,0.689,0.686,0.474721,0.470596
10:19:28,30-Sep-21,0.689,0.684,0.474721,0.467856
10:19:28,30-Sep-21,0.694,0.684,0.481636,0.467856
10:19:28,30-Sep-21,0.689,0.683,0.474721,0.466489
10:19:28,30-Sep-21,0.689,0.682,0.474721,0.465124
10:19:28,30-Sep-21,0.689,0.681,0.474721,0.463761
10:19:28,30-Sep-21,0.689,0.68,0.474721,0.4624
10:19:28,30-Sep-21,0.6795,0.68,0.46172025,0.4624
10:19:28,30-Sep-21,0.6795,0.679,0.46172025,0.461041
10:19:28,30-Sep-21,0.6795,0.679,0.46172025,0.461041
10:19:28,30-Sep-21,0.6745,0.678,0.45495025,0.459684
10:19:28,30-Sep-21,0.6745,0.678,0.45495025,0.459684
10:19:28,30-Sep-21,0.6645,0.678,0.44156025,0.459684
10:19:28,30-Sep-21,0.6645,0.678,0.44156025,0.459684
10:19:28,30-Sep-21,0.6645,0.678,0.44156025,0.459684
10:19:28,30-Sep-21,0.6645,0.678,0.44156025,0.459684
10:19:29,30-Sep-21,0.6645,0.678,0.44156025,0.459684
10:19:29,30-Sep-21,0.6695,0.678,0.44823025,0.459684
10:19:29,30-Sep-21,0.6695,0.678,0.44823025,0.459684
10:19:29,30-Sep-21,0.6745,0.678,0.45495025,0.459684
10:19:29,30-Sep-21,0.6745,0.679,0.45495025,0.461041
10:19:29,30-Sep-21,0.689,0.679,0.474721,0.461041
10:19:29,30-Sep-21,0.689,0.679,0.474721,0.461041
10:19:29,30-Sep-21,0.689,0.68,0.474721,0.4624
10:19:29,30-Sep-21,0.689,0.68,0.474721,0.4624
10:19:29,30-Sep-21,0.694,0.681,0.481636,0.463761
10:19:29,30-Sep-21,0.694,0.681,0.481636,0.463761
10:19:29,30-Sep-21,0.694,0.682,0.481636,0.465124
10:19:29,30-Sep-21,0.694,0.682,0.481636,0.465124
10:19:29,30-Sep-21,0.694,0.683,0.481636,0.466489
10:19:29,30-Sep-21,0.694,0.683,0.481636,0.466489
10:19:29,30-Sep-21,0.694,0.684,0.481636,0.467856
10:19:29,30-Sep-21,0.694,0.684,0.481636,0.467856
10:19:29,30-Sep-21,0.694,0.685,0.481636,0.469225
10:19:29,30-Sep-21,0.6795,0.686,0.46172025,0.470596
10:19:29,30-Sep-21,0.6795,0.686,0.46172025,0.470596
10:19:29,30-Sep-21,0.6795,0.687,0.46172025,0.471969
10:19:29,30-Sep-21,0.6795,0.688,0.46172025,0.473344
10:19:29,30-Sep-21,0.6695,0.689,0.44823025,0.474721
10:19:29,30-Sep-21,0.6745,0.689,0.45495025,0.474721
10:19:29,30-Sep-21,0.6845,0.69,0.46854025,0.4761
10:19:29,30-Sep-21,0.6845,0.691,0.46854025,0.477481
10:19:29,30-Sep-21,0.6845,0.692,0.46854025,0.478864
10:19:29,30-Sep-21,0.694,0.693,0.481636,0.480249
10:19:29,30-Sep-21,0.699,0.694,0.488601,0.481636
10:19:29,30-Sep-21,0.7085,0.695,0.50197225,0.483025
10:19:29,30-Sep-21,0.7085,0.696,0.50197225,0.484416
10:19:29,30-Sep-21,0.7085,0.698,0.50197225,0.487204
10:19:29,30-Sep-21,0.7085,0.699,0.50197225,0.488601
10:19:29,30-Sep-21,0.704,0.7,0.495616,0.49
10:19:29,30-Sep-21,0.704,0.701,0.495616,0.491401
10:19:29,30-Sep-21,0.704,0.703,0.495616,0.494209
10:19:29,30-Sep-21,0.694,0.704,0.481636,0.495616
10:19:29,30-Sep-21,0.689,0.705,0.474721,0.497025
10:19:29,30-Sep-21,0.689,0.707,0.474721,0.499849
10:19:29,30-Sep-21,0.689,0.708,0.474721,0.501264
10:19:29,30-Sep-21,0.6845,0.709,0.46854025,0.502681
10:19:29,30-Sep-21,0.689,0.711,0.474721,0.505521
10:19:29,30-Sep-21,0.694,0.712,0.481636,0.506944
10:19:29,30-Sep-21,0.694,0.714,0.481636,0.509796
10:19:29,30-Sep-21,0.7135,0.715,0.50908225,0.511225
10:19:29,30-Sep-21,0.7135,0.716,0.50908225,0.512656
10:19:29,30-Sep-21,0.7285,0.717,0.53071225,0.514089
10:19:29,30-Sep-21,0.7285,0.718,0.53071225,0.515524
10:19:29,30-Sep-21,0.733,0.719,0.537289,0.516961
10:19:29,30-Sep-21,0.738,0.72,0.544644,0.5184
10:19:29,30-Sep-21,0.733,0.721,0.537289,0.519841
10:19:29,30-Sep-21,0.733,0.722,0.537289,0.521284
10:19:29,30-Sep-21,0.733,0.722,0.537289,0.521284
10:19:29,30-Sep-21,0.7185,0.723,0.51624225,0.522729
10:19:29,30-Sep-21,0.7185,0.723,0.51624225,0.522729
10:19:29,30-Sep-21,0.7185,0.723,0.51624225,0.522729
10:19:29,30-Sep-21,0.7185,0.723,0.51624225,0.522729
10:19:29,30-Sep-21,0.7185,0.723,0.51624225,0.522729
10:19:29,30-Sep-21,0.7285,0.722,0.53071225,0.521284
10:19:29,30-Sep-21,0.733,0.722,0.537289,0.521284
10:19:29,30-Sep-21,0.733,0.721,0.537289,0.519841
10:19:29,30-Sep-21,0.743,0.72,0.552049,0.5184
10:19:29,30-Sep-21,0.738,0.719,0.544644,0.516961
10:19:29,30-Sep-21,0.738,0.717,0.544644,0.514089
10:19:29,30-Sep-21,0.7235,0.716,0.52345225,0.512656
10:19:29,30-Sep-21,0.7235,0.714,0.52345225,0.509796
10:19:29,30-Sep-21,0.7235,0.713,0.52345225,0.508369
10:19:29,30-Sep-21,0.7235,0.711,0.52345225,0.505521
10:19:29,30-Sep-21,0.7135,0.709,0.50908225,0.502681
10:19:29,30-Sep-21,0.7135,0.707,0.50908225,0.499849
10:19:29,30-Sep-21,0.699,0.705,0.488601,0.497025
10:19:29,30-Sep-21,0.699,0.702,0.488601,0.492804
10:19:29,30-Sep-21,0.689,0.7,0.474721,0.49
10:19:29,30-Sep-21,0.6845,0.698,0.46854025,0.487204
10:19:29,30-Sep-21,0.6745,0.695,0.45495025,0.483025
10:19:29,30-Sep-21,0.6745,0.693,0.45495025,0.480249
10:19:29,30-Sep-21,0.6745,0.691,0.45495025,0.477481
10:19:29,30-Sep-21,0.6695,0.688,0.44823025,0.473344
10:19:29,30-Sep-21,0.6795,0.686,0.46172025,0.470596
10:19:29,30-Sep-21,0.6795,0.684,0.46172025,0.467856
10:19:29,30-Sep-21,0.6795,0.682,0.46172025,0.465124
10:19:29,30-Sep-21,0.6795,0.679,0.46172025,0.461041
10:19:29,30-Sep-21,0.6795,0.677,0.46172025,0.458329
10:19:29,30-Sep-21,0.6795,0.675,0.46172025,0.455625
10:19:29,30-Sep-21,0.6795,0.673,0.46172025,0.452929
10:19:29,30-Sep-21,0.6745,0.672,0.45495025,0.451584
10:19:29,30-Sep-21,0.6745,0.67,0.45495025,0.4489
10:19:29,30-Sep-21,0.6645,0.668,0.44156025,0.446224
10:19:29,30-Sep-21,0.6645,0.666,0.44156025,0.443556
10:19:29,30-Sep-21,0.66,0.665,0.4356,0.442225
10:19:29,30-Sep-21,0.65,0.664,0.4225,0.440896
10:19:29,30-Sep-21,0.65,0.662,0.4225,0.438244
10:19:29,30-Sep-21,0.65,0.661,0.4225,0.436921
10:19:29,30-Sep-21,0.65,0.66,0.4225,0.4356
10:19:30,30-Sep-21,0.65,0.659,0.4225,0.434281
10:19:30,30-Sep-21,0.655,0.658,0.429025,0.432964
10:19:30,30-Sep-21,0.66,0.657,0.4356,0.431649
10:19:30,30-Sep-21,0.66,0.657,0.4356,0.431649
10:19:30,30-Sep-21,0.6745,0.656,0.45495025,0.430336
10:19:30,30-Sep-21,0.6745,0.656,0.45495025,0.430336
10:19:30,30-Sep-21,0.6745,0.656,0.45495025,0.430336
10:19:30,30-Sep-21,0.6745,0.655,0.45495025,0.429025
10:19:30,30-Sep-21,0.6745,0.655,0.45495025,0.429025
10:19:30,30-Sep-21,0.6695,0.655,0.44823025,0.429025
10:19:30,30-Sep-21,0.6695,0.655,0.44823025,0.429025
10:19:30,30-Sep-21,0.6695,0.656,0.44823025,0.430336
10:19:30,30-Sep-21,0.655,0.656,0.429025,0.430336
10:19:30,30-Sep-21,0.655,0.656,0.429025,0.430336
10:19:30,30-Sep-21,0.645,0.657,0.416025,0.431649
10:19:30,30-Sep-21,0.645,0.658,0.416025,0.432964
10:19:30,30-Sep-21,0.645,0.658,0.416025,0.432964
10:19:30,30-Sep-21,0.655,0.659,0.429025,0.434281
10:19:30,30-Sep-21,0.655,0.66,0.429025,0.4356
10:19:30,30-Sep-21,0.66,0.662,0.4356,0.438244
10:19:30,30-Sep-21,0.66,0.663,0.4356,0.439569
10:19:30,30-Sep-21,0.6695,0.664,0.44823025,0.440896
10:19:30,30-Sep-21,0.6695,0.666,0.44823025,0.443556
10:19:30,30-Sep-21,0.6695,0.668,0.44823025,0.446224
10:19:30,30-Sep-21,0.6645,0.669,0.44156025,0.447561
10:19:30,30-Sep-21,0.6645,0.671,0.44156025,0.450241
10:19:30,30-Sep-21,0.6645,0.673,0.44156025,0.452929
10:19:30,30-Sep-21,0.655,0.676,0.429025,0.456976
10:19:30,30-Sep-21,0.655,0.678,0.429025,0.459684
10:19:30,30-Sep-21,0.65,0.68,0.4225,0.4624
10:19:30,30-Sep-21,0.65,0.682,0.4225,0.465124
10:19:30,30-Sep-21,0.6645,0.685,0.44156025,0.469225
10:19:30,30-Sep-21,0.689,0.687,0.474721,0.471969
10:19:30,30-Sep-21,0.689,0.69,0.474721,0.4761
10:19:30,30-Sep-21,0.689,0.692,0.474721,0.478864
10:19:30,30-Sep-21,0.704,0.694,0.495616,0.481636
10:19:30,30-Sep-21,0.7135,0.697,0.50908225,0.485809
10:19:30,30-Sep-21,0.7135,0.699,0.50908225,0.488601
10:19:30,30-Sep-21,0.7235,0.701,0.52345225,0.491401
10:19:30,30-Sep-21,0.7235,0.704,0.52345225,0.495616
10:19:30,30-Sep-21,0.7235,0.706,0.52345225,0.498436
10:19:30,30-Sep-21,0.7235,0.708,0.52345225,0.501264
10:19:30,30-Sep-21,0.7185,0.709,0.51624225,0.502681
10:19:30,30-Sep-21,0.7185,0.711,0.51624225,0.505521
10:19:30,30-Sep-21,0.7185,0.713,0.51624225,0.508369
10:19:30,30-Sep-21,0.7085,0.714,0.50197225,0.509796
10:19:30,30-Sep-21,0.7085,0.715,0.50197225,0.511225
10:19:30,30-Sep-21,0.7085,0.716,0.50197225,0.512656
10:19:30,30-Sep-21,0.7085,0.717,0.50197225,0.514089
10:19:30,30-Sep-21,0.7135,0.718,0.50908225,0.515524
10:19:30,30-Sep-21,0.7135,0.719,0.50908225,0.516961
10:19:30,30-Sep-21,0.7135,0.719,0.50908225,0.516961
10:19:30,30-Sep-21,0.7135,0.719,0.50908225,0.516961
10:19:30,30-Sep-21,0.7135,0.719,0.50908225,0.516961
10:19:30,30-Sep-21,0.7285,0.719,0.53071225,0.516961
10:19:30,30-Sep-21,0.7285,0.719,0.53071225,0.516961
10:19:30,30-Sep-21,0.7285,0.718,0.53071225,0.515524
10:19:30,30-Sep-21,0.7285,0.717,0.53071225,0.514089
10:19:30,30-Sep-21,0.7285,0.717,0.53071225,0.514089
10:19:30,30-Sep-21,0.7285,0.716,0.53071225,0.512656
10:19:30,30-Sep-21,0.7285,0.714,0.53071225,0.509796
10:19:30,30-Sep-21,0.7235,0.713,0.52345225,0.508369
10:19:30,30-Sep-21,0.7235,0.712,0.52345225,0.506944
10:19:30,30-Sep-21,0.7185,0.71,0.51624225,0.5041
10:19:30,30-Sep-21,0.7185,0.708,0.51624225,0.501264
10:19:30,30-Sep-21,0.704,0.707,0.495616,0.499849
10:19:30,30-Sep-21,0.704,0.705,0.495616,0.497025
10:19:30,30-Sep-21,0.704,0.703,0.495616,0.494209
10:19:30,30-Sep-21,0.6845,0.701,0.46854025,0.491401
10:19:30,30-Sep-21,0.6845,0.699,0.46854025,0.488601
10:19:30,30-Sep-21,0.6795,0.697,0.46172025,0.485809
10:19:30,30-Sep-21,0.6845,0.695,0.46854025,0.483025
10:19:30,30-Sep-21,0.6845,0.693,0.46854025,0.480249
10:19:30,30-Sep-21,0.6845,0.691,0.46854025,0.477481
10:19:30,30-Sep-21,0.689,0.69,0.474721,0.4761
10:19:30,30-Sep-21,0.689,0.688,0.474721,0.473344
10:19:30,30-Sep-21,0.689,0.686,0.474721,0.470596
10:19:30,30-Sep-21,0.689,0.684,0.474721,0.467856
10:19:30,30-Sep-21,0.689,0.683,0.474721,0.466489
10:19:30,30-Sep-21,0.6795,0.682,0.46172025,0.465124
10:19:30,30-Sep-21,0.6745,0.68,0.45495025,0.4624
10:19:30,30-Sep-21,0.6745,0.679,0.45495025,0.461041
10:19:30,30-Sep-21,0.6645,0.678,0.44156025,0.459684
10:19:30,30-Sep-21,0.6645,0.677,0.44156025,0.458329
10:19:30,30-Sep-21,0.6645,0.676,0.44156025,0.456976
10:19:30,30-Sep-21,0.6645,0.675,0.44156025,0.455625
10:19:30,30-Sep-21,0.6645,0.675,0.44156025,0.455625
10:19:31,30-Sep-21,0.6645,0.674,0.44156025,0.454276
10:19:31,30-Sep-21,0.6645,0.674,0.44156025,0.454276
10:19:31,30-Sep-21,0.6695,0.674,0.44823025,0.454276
10:19:31,30-Sep-21,0.6845,0.674,0.46854025,0.454276
10:19:31,30-Sep-21,0.6845,0.674,0.46854025,0.454276
10:19:31,30-Sep-21,0.689,0.674,0.474721,0.454276
10:19:31,30-Sep-21,0.694,0.674,0.481636,0.454276
10:19:31,30-Sep-21,0.694,0.675,0.481636,0.455625
10:19:31,30-Sep-21,0.694,0.675,0.481636,0.455625
10:19:31,30-Sep-21,0.689,0.676,0.474721,0.456976
10:19:31,30-Sep-21,0.689,0.677,0.474721,0.458329
10:19:31,30-Sep-21,0.689,0.678,0.474721,0.459684
10:19:31,30-Sep-21,0.6795,0.679,0.46172025,0.461041
10:19:31,30-Sep-21,0.6795,0.68,0.46172025,0.4624
10:19:31,30-Sep-21,0.6795,0.681,0.46172025,0.463761
10:19:31,30-Sep-21,0.6745,0.683,0.45495025,0.466489
10:19:31,30-Sep-21,0.6745,0.684,0.45495025,0.467856
10:19:31,30-Sep-21,0.6745,0.686,0.45495025,0.470596
10:19:31,30-Sep-21,0.6745,0.687,0.45495025,0.471969
10:19:31,30-Sep-21,0.6695,0.689,0.44823025,0.474721
10:19:31,30-Sep-21,0.6695,0.691,0.44823025,0.477481
10:19:31,30-Sep-21,0.6795,0.693,0.46172025,0.480249
10:19:31,30-Sep-21,0.6795,0.695,0.46172025,0.483025
10:19:31,30-Sep-21,0.6795,0.697,0.46172025,0.485809
10:19:31,30-Sep-21,0.689,0.699,0.474721,0.488601
10:19:31,30-Sep-21,0.704,0.701,0.495616,0.491401
10:19:31,30-Sep-21,0.7085,0.703,0.50197225,0.494209
10:19:31,30-Sep-21,0.7085,0.705,0.50197225,0.497025
10:19:31,30-Sep-21,0.7135,0.707,0.50908225,0.499849
10:19:31,30-Sep-21,0.7135,0.709,0.50908225,0.502681
10:19:31,30-Sep-21,0.7235,0.711,0.52345225,0.505521
10:19:31,30-Sep-21,0.7185,0.713,0.51624225,0.508369
10:19:31,30-Sep-21,0.7185,0.715,0.51624225,0.511225
10:19:31,30-Sep-21,0.7235,0.717,0.52345225,0.514089
10:19:31,30-Sep-21,0.7235,0.719,0.52345225,0.516961
10:19:31,30-Sep-21,0.7235,0.72,0.52345225,0.5184
10:19:31,30-Sep-21,0.7235,0.722,0.52345225,0.521284
10:19:31,30-Sep-21,0.7185,0.723,0.51624225,0.522729
10:19:31,30-Sep-21,0.7185,0.724,0.51624225,0.524176
10:19:31,30-Sep-21,0.7185,0.725,0.51624225,0.525625
10:19:31,30-Sep-21,0.7185,0.726,0.51624225,0.527076
10:19:31,30-Sep-21,0.733,0.727,0.537289,0.528529
10:19:31,30-Sep-21,0.733,0.728,0.537289,0.529984
10:19:31,30-Sep-21,0.743,0.728,0.552049,0.529984
10:19:31,30-Sep-21,0.743,0.729,0.552049,0.531441
10:19:31,30-Sep-21,0.748,0.729,0.559504,0.531441
10:19:31,30-Sep-21,0.748,0.729,0.559504,0.531441
10:19:31,30-Sep-21,0.743,0.729,0.552049,0.531441
10:19:31,30-Sep-21,0.743,0.729,0.552049,0.531441
10:19:31,30-Sep-21,0.738,0.728,0.544644,0.529984
10:19:31,30-Sep-21,0.738,0.728,0.544644,0.529984
10:19:31,30-Sep-21,0.733,0.727,0.537289,0.528529
10:19:31,30-Sep-21,0.7235,0.726,0.52345225,0.527076
10:19:31,30-Sep-21,0.7235,0.725,0.52345225,0.525625
10:19:31,30-Sep-21,0.7235,0.724,0.52345225,0.524176
10:19:31,30-Sep-21,0.7135,0.723,0.50908225,0.522729
10:19:31,30-Sep-21,0.7135,0.722,0.50908225,0.521284
10:19:31,30-Sep-21,0.704,0.721,0.495616,0.519841
10:19:31,30-Sep-21,0.704,0.72,0.495616,0.5184
10:19:31,30-Sep-21,0.704,0.719,0.495616,0.516961
10:19:31,30-Sep-21,0.704,0.717,0.495616,0.514089
10:19:31,30-Sep-21,0.704,0.716,0.495616,0.512656
10:19:31,30-Sep-21,0.7185,0.715,0.51624225,0.511225
10:19:31,30-Sep-21,0.7185,0.713,0.51624225,0.508369
10:19:31,30-Sep-21,0.7185,0.712,0.51624225,0.506944
10:19:31,30-Sep-21,0.7185,0.711,0.51624225,0.505521
10:19:31,30-Sep-21,0.7135,0.71,0.50908225,0.5041
10:19:31,30-Sep-21,0.7135,0.709,0.50908225,0.502681
10:19:31,30-Sep-21,0.7085,0.708,0.50197225,0.501264
10:19:31,30-Sep-21,0.7085,0.707,0.50197225,0.499849
10:19:31,30-Sep-21,0.699,0.706,0.488601,0.498436
10:19:31,30-Sep-21,0.699,0.705,0.488601,0.497025
10:19:31,30-Sep-21,0.699,0.704,0.488601,0.495616
10:19:31,30-Sep-21,0.689,0.703,0.474721,0.494209
10:19:31,30-Sep-21,0.689,0.703,0.474721,0.494209
10:19:31,30-Sep-21,0.689,0.702,0.474721,0.492804
10:19:31,30-Sep-21,0.694,0.702,0.481636,0.492804
10:19:31,30-Sep-21,0.699,0.701,0.488601,0.491401
10:19:31,30-Sep-21,0.699,0.701,0.488601,0.491401
10:19:31,30-Sep-21,0.7135,0.701,0.50908225,0.491401
10:19:31,30-Sep-21,0.7135,0.701,0.50908225,0.491401
10:19:31,30-Sep-21,0.7135,0.701,0.50908225,0.491401
10:19:31,30-Sep-21,0.7135,0.701,0.50908225,0.491401
10:19:31,30-Sep-21,0.7085,0.701,0.50197225,0.491401
10:19:31,30-Sep-21,0.7085,0.701,0.50197225,0.491401
10:19:31,30-Sep-21,0.7085,0.702,0.50197225,0.492804
10:19:31,30-Sep-21,0.704,0.702,0.495616,0.492804
10:19:31,30-Sep-21,0.699,0.702,0.488601,0.492804
10:19:31,30-Sep-21,0.699,0.703,0.488601,0.494209
10:19:31,30-Sep-21,0.699,0.704,0.488601,0.495616
10:19:31,30-Sep-21,0.699,0.704,0.488601,0.495616
10:19:31,30-Sep-21,0.699,0.705,0.488601,0.497025
10:19:31,30-Sep-21,0.699,0.706,0.488601,0.498436
10:19:31,30-Sep-21,0.699,0.707,0.488601,0.499849
10:19:31,30-Sep-21,0.699,0.707,0.488601,0.499849
10:19:31,30-Sep-21,0.699,0.708,0.488601,0.501264
10:19:31,30-Sep-21,0.699,0.709,0.488601,0.502681
10:19:32,30-Sep-21,0.699,0.71,0.488601,0.5041
10:19:32,30-Sep-21,0.7135,0.711,0.50908225,0.505521
10:19:32,30-Sep-21,0.7185,0.712,0.51624225,0.506944
10:19:32,30-Sep-21,0.7235,0.713,0.52345225,0.508369
10:19:32,30-Sep-21,0.7235,0.714,0.52345225,0.509796
10:19:32,30-Sep-21,0.7235,0.715,0.52345225,0.511225
10:19:32,30-Sep-21,0.7235,0.716,0.52345225,0.512656
10:19:32,30-Sep-21,0.7235,0.717,0.52345225,0.514089
10:19:32,30-Sep-21,0.7185,0.718,0.51624225,0.515524
10:19:32,30-Sep-21,0.7185,0.719,0.51624225,0.516961
10:19:32,30-Sep-21,0.7185,0.72,0.51624225,0.5184
10:19:32,30-Sep-21,0.7135,0.721,0.50908225,0.519841
10:19:32,30-Sep-21,0.7135,0.721,0.50908225,0.519841
10:19:32,30-Sep-21,0.7135,0.722,0.50908225,0.521284
10:19:32,30-Sep-21,0.7135,0.723,0.50908225,0.522729
10:19:32,30-Sep-21,0.7185,0.723,0.51624225,0.522729
10:19:32,30-Sep-21,0.7185,0.724,0.51624225,0.524176
10:19:32,30-Sep-21,0.7285,0.724,0.53071225,0.524176
10:19:32,30-Sep-21,0.738,0.724,0.544644,0.524176
10:19:32,30-Sep-21,0.738,0.725,0.544644,0.525625
10:19:32,30-Sep-21,0.738,0.725,0.544644,0.525625
10:19:32,30-Sep-21,0.738,0.725,0.544644,0.525625
10:19:32,30-Sep-21,0.738,0.724,0.544644,0.524176
10:19:32,30-Sep-21,0.738,0.724,0.544644,0.524176
10:19:32,30-Sep-21,0.733,0.724,0.537289,0.524176
10:19:32,30-Sep-21,0.7235,0.724,0.52345225,0.524176
10:19:32,30-Sep-21,0.7185,0.723,0.51624225,0.522729
10:19:32,30-Sep-21,0.7085,0.723,0.50197225,0.522729
10:19:32,30-Sep-21,0.7085,0.722,0.50197225,0.521284
10:19:32,30-Sep-21,0.7085,0.721,0.50197225,0.519841
10:19:32,30-Sep-21,0.7085,0.72,0.50197225,0.5184
10:19:32,30-Sep-21,0.704,0.72,0.495616,0.5184
10:19:32,30-Sep-21,0.7185,0.719,0.51624225,0.516961
10:19:32,30-Sep-21,0.7185,0.718,0.51624225,0.515524
10:19:32,30-Sep-21,0.7235,0.717,0.52345225,0.514089
10:19:32,30-Sep-21,0.7285,0.716,0.53071225,0.512656
10:19:32,30-Sep-21,0.7285,0.715,0.53071225,0.511225
10:19:32,30-Sep-21,0.7285,0.713,0.53071225,0.508369
10:19:32,30-Sep-21,0.7235,0.712,0.52345225,0.506944
10:19:32,30-Sep-21,0.7235,0.711,0.52345225,0.505521
10:19:32,30-Sep-21,0.7135,0.71,0.50908225,0.5041
10:19:32,30-Sep-21,0.7085,0.709,0.50197225,0.502681
10:19:32,30-Sep-21,0.7085,0.707,0.50197225,0.499849
10:19:32,30-Sep-21,0.699,0.706,0.488601,0.498436
10:19:32,30-Sep-21,0.699,0.705,0.488601,0.497025
10:19:32,30-Sep-21,0.699,0.704,0.488601,0.495616
10:19:32,30-Sep-21,0.694,0.703,0.481636,0.494209
10:19:32,30-Sep-21,0.694,0.702,0.481636,0.492804
10:19:32,30-Sep-21,0.689,0.701,0.474721,0.491401
10:19:32,30-Sep-21,0.689,0.7,0.474721,0.49
10:19:32,30-Sep-21,0.6845,0.699,0.46854025,0.488601
10:19:32,30-Sep-21,0.6845,0.698,0.46854025,0.487204
10:19:32,30-Sep-21,0.6845,0.697,0.46854025,0.485809
10:19:32,30-Sep-21,0.699,0.696,0.488601,0.484416
10:19:32,30-Sep-21,0.699,0.696,0.488601,0.484416
10:19:32,30-Sep-21,0.699,0.695,0.488601,0.483025
10:19:32,30-Sep-21,0.704,0.695,0.495616,0.483025
10:19:32,30-Sep-21,0.704,0.694,0.495616,0.481636
10:19:32,30-Sep-21,0.704,0.694,0.495616,0.481636
10:19:32,30-Sep-21,0.704,0.693,0.495616,0.480249
10:19:32,30-Sep-21,0.704,0.693,0.495616,0.480249
10:19:32,30-Sep-21,0.694,0.693,0.481636,0.480249
10:19:32,30-Sep-21,0.694,0.693,0.481636,0.480249
10:19:32,30-Sep-21,0.694,0.693,0.481636,0.480249
10:19:32,30-Sep-21,0.689,0.693,0.474721,0.480249
10:19:32,30-Sep-21,0.689,0.693,0.474721,0.480249
10:19:32,30-Sep-21,0.689,0.693,0.474721,0.480249
10:19:32,30-Sep-21,0.6845,0.694,0.46854025,0.481636
10:19:32,30-Sep-21,0.6845,0.694,0.46854025,0.481636
10:19:32,30-Sep-21,0.6845,0.694,0.46854025,0.481636
10:19:32,30-Sep-21,0.6845,0.695,0.46854025,0.483025
10:19:32,30-Sep-21,0.689,0.696,0.474721,0.484416
10:19:32,30-Sep-21,0.689,0.696,0.474721,0.484416
10:19:32,30-Sep-21,0.694,0.697,0.481636,0.485809
10:19:32,30-Sep-21,0.694,0.697,0.481636,0.485809
10:19:32,30-Sep-21,0.7085,0.698,0.50197225,0.487204
10:19:32,30-Sep-21,0.7085,0.699,0.50197225,0.488601
10:19:32,30-Sep-21,0.7135,0.7,0.50908225,0.49
10:19:32,30-Sep-21,0.7135,0.701,0.50908225,0.491401
10:19:32,30-Sep-21,0.7135,0.702,0.50908225,0.492804
10:19:32,30-Sep-21,0.7135,0.702,0.50908225,0.492804
10:19:32,30-Sep-21,0.7135,0.703,0.50908225,0.494209
10:19:32,30-Sep-21,0.7135,0.704,0.50908225,0.495616
10:19:32,30-Sep-21,0.704,0.705,0.495616,0.497025
10:19:32,30-Sep-21,0.704,0.706,0.495616,0.498436
10:19:32,30-Sep-21,0.704,0.707,0.495616,0.499849
10:19:32,30-Sep-21,0.699,0.708,0.488601,0.501264
10:19:32,30-Sep-21,0.699,0.709,0.488601,0.502681
10:19:32,30-Sep-21,0.699,0.71,0.488601,0.5041
10:19:32,30-Sep-21,0.699,0.712,0.488601,0.506944
10:19:33,30-Sep-21,0.7135,0.713,0.50908225,0.508369
10:19:33,30-Sep-21,0.7185,0.714,0.51624225,0.509796
10:19:33,30-Sep-21,0.7235,0.715,0.52345225,0.511225
10:19:33,30-Sep-21,0.7235,0.716,0.52345225,0.512656
10:19:33,30-Sep-21,0.7235,0.717,0.52345225,0.514089
10:19:33,30-Sep-21,0.7185,0.718,0.51624225,0.515524
10:19:33,30-Sep-21,0.7185,0.719,0.51624225,0.516961
10:19:33,30-Sep-21,0.7185,0.72,0.51624225,0.5184
10:19:33,30-Sep-21,0.7185,0.721,0.51624225,0.519841
10:19:33,30-Sep-21,0.7185,0.722,0.51624225,0.521284
10:19:33,30-Sep-21,0.7085,0.723,0.50197225,0.522729
10:19:33,30-Sep-21,0.7085,0.724,0.50197225,0.524176
10:19:33,30-Sep-21,0.7085,0.725,0.50197225,0.525625
10:19:33,30-Sep-21,0.7185,0.726,0.51624225,0.527076
10:19:33,30-Sep-21,0.7185,0.727,0.51624225,0.528529
10:19:33,30-Sep-21,0.7235,0.728,0.52345225,0.529984
10:19:33,30-Sep-21,0.7235,0.729,0.52345225,0.531441
10:19:33,30-Sep-21,0.738,0.73,0.544644,0.5329
10:19:33,30-Sep-21,0.743,0.73,0.552049,0.5329
10:19:33,30-Sep-21,0.743,0.731,0.552049,0.534361
10:19:33,30-Sep-21,0.748,0.732,0.559504,0.535824
10:19:33,30-Sep-21,0.748,0.732,0.559504,0.535824
10:19:33,30-Sep-21,0.748,0.733,0.559504,0.537289
10:19:33,30-Sep-21,0.748,0.733,0.559504,0.537289
10:19:33,30-Sep-21,0.748,0.734,0.559504,0.538756
10:19:33,30-Sep-21,0.748,0.734,0.559504,0.538756
10:19:33,30-Sep-21,0.733,0.734,0.537289,0.538756
10:19:33,30-Sep-21,0.733,0.734,0.537289,0.538756
10:19:33,30-Sep-21,0.733,0.735,0.537289,0.540225
10:19:33,30-Sep-21,0.733,0.735,0.537289,0.540225
10:19:33,30-Sep-21,0.733,0.735,0.537289,0.540225
10:19:33,30-Sep-21,0.7235,0.735,0.52345225,0.540225
10:19:33,30-Sep-21,0.7235,0.735,0.52345225,0.540225
10:19:33,30-Sep-21,0.7235,0.734,0.52345225,0.538756
10:19:33,30-Sep-21,0.7185,0.734,0.51624225,0.538756
10:19:33,30-Sep-21,0.7185,0.734,0.51624225,0.538756
10:19:33,30-Sep-21,0.7235,0.734,0.52345225,0.538756
10:19:33,30-Sep-21,0.7235,0.734,0.52345225,0.538756
10:19:33,30-Sep-21,0.7235,0.733,0.52345225,0.537289
10:19:33,30-Sep-21,0.738,0.733,0.544644,0.537289
10:19:33,30-Sep-21,0.738,0.733,0.544644,0.537289
10:19:33,30-Sep-21,0.738,0.732,0.544644,0.535824
10:19:33,30-Sep-21,0.743,0.732,0.552049,0.535824
10:19:33,30-Sep-21,0.743,0.731,0.552049,0.534361
10:19:33,30-Sep-21,0.738,0.731,0.544644,0.534361
10:19:33,30-Sep-21,0.738,0.73,0.544644,0.5329
10:19:33,30-Sep-21,0.738,0.73,0.544644,0.5329
10:19:33,30-Sep-21,0.733,0.729,0.537289,0.531441
10:19:33,30-Sep-21,0.733,0.729,0.537289,0.531441
10:19:33,30-Sep-21,0.733,0.728,0.537289,0.529984
10:19:33,30-Sep-21,0.7235,0.728,0.52345225,0.529984
10:19:33,30-Sep-21,0.7185,0.727,0.51624225,0.528529
10:19:33,30-Sep-21,0.7135,0.726,0.50908225,0.527076
10:19:33,30-Sep-21,0.7135,0.726,0.50908225,0.527076
10:19:33,30-Sep-21,0.7135,0.725,0.50908225,0.525625
10:19:33,30-Sep-21,0.7235,0.724,0.52345225,0.524176
10:19:33,30-Sep-21,0.7235,0.724,0.52345225,0.524176
10:19:33,30-Sep-21,0.7285,0.723,0.53071225,0.522729
10:19:33,30-Sep-21,0.733,0.723,0.537289,0.522729
10:19:33,30-Sep-21,0.733,0.722,0.537289,0.521284
10:19:33,30-Sep-21,0.733,0.721,0.537289,0.519841
10:19:33,30-Sep-21,0.733,0.721,0.537289,0.519841
10:19:33,30-Sep-21,0.733,0.72,0.537289,0.5184
10:19:33,30-Sep-21,0.7235,0.72,0.52345225,0.5184
10:19:33,30-Sep-21,0.7235,0.72,0.52345225,0.5184
10:19:33,30-Sep-21,0.7135,0.719,0.50908225,0.516961
10:19:33,30-Sep-21,0.7135,0.719,0.50908225,0.516961
10:19:33,30-Sep-21,0.7135,0.718,0.50908225,0.515524
10:19:33,30-Sep-21,0.704,0.718,0.495616,0.515524
10:19:33,30-Sep-21,0.704,0.718,0.495616,0.515524
10:19:33,30-Sep-21,0.704,0.718,0.495616,0.515524
10:19:33,30-Sep-21,0.704,0.718,0.495616,0.515524
10:19:33,30-Sep-21,0.7085,0.718,0.50197225,0.515524
10:19:33,30-Sep-21,0.7235,0.718,0.52345225,0.515524
10:19:33,30-Sep-21,0.7235,0.718,0.52345225,0.515524
10:19:33,30-Sep-21,0.7235,0.718,0.52345225,0.515524
10:19:33,30-Sep-21,0.7235,0.718,0.52345225,0.515524
10:19:33,30-Sep-21,0.7285,0.719,0.53071225,0.516961
10:19:33,30-Sep-21,0.7285,0.719,0.53071225,0.516961
10:19:33,30-Sep-21,0.7285,0.719,0.53071225,0.516961
10:19:33,30-Sep-21,0.7285,0.72,0.53071225,0.5184
10:19:33,30-Sep-21,0.7285,0.72,0.53071225,0.5184
10:19:33,30-Sep-21,0.7235,0.721,0.52345225,0.519841
10:19:33,30-Sep-21,0.7235,0.721,0.52345225,0.519841
10:19:33,30-Sep-21,0.7135,0.722,0.50908225,0.521284
10:19:33,30-Sep-21,0.7135,0.723,0.50908225,0.522729
10:19:33,30-Sep-21,0.7135,0.724,0.50908225,0.524176
10:19:33,30-Sep-21,0.7135,0.724,0.50908225,0.524176
10:19:33,30-Sep-21,0.7085,0.725,0.50197225,0.525625
10:19:33,30-Sep-21,0.7085,0.726,0.50197225,0.527076
10:19:33,30-Sep-21,0.7085,0.727,0.50197225,0.528529
10:19:33,30-Sep-21,0.7085,0.728,0.50197225,0.529984
10:19:33,30-Sep-21,0.7135,0.728,0.50908225,0.529984
10:19:33,30-Sep-21,0.7285,0.729,0.53071225,0.531441
10:19:33,30-Sep-21,0.7285,0.73,0.53071225,0.5329
10:19:33,30-Sep-21,0.7285,0.731,0.53071225,0.534361
10:19:34,30-Sep-21,0.738,0.731,0.544644,0.534361
10:19:34,30-Sep-21,0.738,0.732,0.544644,0.535824
10:19:34,30-Sep-21,0.748,0.733,0.559504,0.537289
10:19:34,30-Sep-21,0.7525,0.733,0.56625625,0.537289
10:19:34,30-Sep-21,0.7525,0.734,0.56625625,0.538756
10:19:34,30-Sep-21,0.748,0.734,0.559504,0.538756
10:19:34,30-Sep-21,0.748,0.734,0.559504,0.538756
10:19:34,30-Sep-21,0.748,0.735,0.559504,0.540225
10:19:34,30-Sep-21,0.748,0.735,0.559504,0.540225
10:19:34,30-Sep-21,0.748,0.735,0.559504,0.540225
10:19:34,30-Sep-21,0.738,0.735,0.544644,0.540225
10:19:34,30-Sep-21,0.738,0.734,0.544644,0.538756
10:19:34,30-Sep-21,0.733,0.734,0.537289,0.538756
10:19:34,30-Sep-21,0.7285,0.734,0.53071225,0.538756
10:19:34,30-Sep-21,0.7285,0.733,0.53071225,0.537289
10:19:34,30-Sep-21,0.7235,0.733,0.52345225,0.537289
10:19:34,30-Sep-21,0.7185,0.732,0.51624225,0.535824
10:19:34,30-Sep-21,0.7185,0.731,0.51624225,0.534361
10:19:34,30-Sep-21,0.7185,0.731,0.51624225,0.534361
10:19:34,30-Sep-21,0.733,0.73,0.537289,0.5329
10:19:34,30-Sep-21,0.733,0.729,0.537289,0.531441
10:19:34,30-Sep-21,0.738,0.728,0.544644,0.529984
10:19:34,30-Sep-21,0.738,0.727,0.544644,0.528529
10:19:34,30-Sep-21,0.738,0.726,0.544644,0.527076
10:19:34,30-Sep-21,0.738,0.725,0.544644,0.525625
10:19:34,30-Sep-21,0.738,0.724,0.544644,0.524176
10:19:34,30-Sep-21,0.7285,0.723,0.53071225,0.522729
10:19:34,30-Sep-21,0.7185,0.722,0.51624225,0.521284
10:19:34,30-Sep-21,0.7135,0.721,0.50908225,0.519841
10:19:34,30-Sep-21,0.704,0.72,0.495616,0.5184
10:19:34,30-Sep-21,0.704,0.719,0.495616,0.516961
10:19:34,30-Sep-21,0.699,0.718,0.488601,0.515524
10:19:34,30-Sep-21,0.699,0.717,0.488601,0.514089
10:19:34,30-Sep-21,0.699,0.716,0.488601,0.512656
10:19:34,30-Sep-21,0.704,0.715,0.495616,0.511225
10:19:34,30-Sep-21,0.704,0.714,0.495616,0.509796
10:19:34,30-Sep-21,0.7185,0.713,0.51624225,0.508369
10:19:34,30-Sep-21,0.7235,0.713,0.52345225,0.508369
10:19:34,30-Sep-21,0.7235,0.712,0.52345225,0.506944
10:19:34,30-Sep-21,0.7235,0.711,0.52345225,0.505521
10:19:34,30-Sep-21,0.7235,0.711,0.52345225,0.505521
10:19:34,30-Sep-21,0.7235,0.71,0.52345225,0.5041
10:19:34,30-Sep-21,0.7185,0.71,0.51624225,0.5041
10:19:34,30-Sep-21,0.7185,0.71,0.51624225,0.5041
10:19:34,30-Sep-21,0.7135,0.709,0.50908225,0.502681
10:19:34,30-Sep-21,0.704,0.709,0.495616,0.502681
10:19:34,30-Sep-21,0.704,0.709,0.495616,0.502681
10:19:34,30-Sep-21,0.704,0.709,0.495616,0.502681
10:19:34,30-Sep-21,0.704,0.709,0.495616,0.502681
10:19:34,30-Sep-21,0.704,0.709,0.495616,0.502681
10:19:34,30-Sep-21,0.694,0.709,0.481636,0.502681
10:19:34,30-Sep-21,0.694,0.709,0.481636,0.502681
10:19:34,30-Sep-21,0.694,0.709,0.481636,0.502681
10:19:34,30-Sep-21,0.704,0.71,0.495616,0.5041
10:19:34,30-Sep-21,0.7085,0.71,0.50197225,0.5041
10:19:34,30-Sep-21,0.7235,0.711,0.52345225,0.505521
10:19:34,30-Sep-21,0.7235,0.711,0.52345225,0.505521
10:19:34,30-Sep-21,0.7235,0.712,0.52345225,0.506944
10:19:34,30-Sep-21,0.7235,0.712,0.52345225,0.506944
10:19:34,30-Sep-21,0.7235,0.713,0.52345225,0.508369
10:19:34,30-Sep-21,0.7185,0.714,0.51624225,0.509796
10:19:34,30-Sep-21,0.7185,0.715,0.51624225,0.511225
10:19:34,30-Sep-21,0.7185,0.715,0.51624225,0.511225
10:19:34,30-Sep-21,0.7085,0.716,0.50197225,0.512656
10:19:34,30-Sep-21,0.7085,0.717,0.50197225,0.514089
10:19:34,30-Sep-21,0.704,0.718,0.495616,0.515524
10:19:34,30-Sep-21,0.699,0.719,0.488601,0.516961
10:19:34,30-Sep-21,0.699,0.72,0.488601,0.5184
10:19:34,30-Sep-21,0.704,0.721,0.495616,0.519841
10:19:34,30-Sep-21,0.7235,0.722,0.52345225,0.521284
10:19:34,30-Sep-21,0.7235,0.723,0.52345225,0.522729
10:19:34,30-Sep-21,0.7235,0.723,0.52345225,0.522729
10:19:34,30-Sep-21,0.7285,0.724,0.53071225,0.524176
10:19:34,30-Sep-21,0.738,0.725,0.544644,0.525625
10:19:34,30-Sep-21,0.743,0.726,0.552049,0.527076
10:19:34,30-Sep-21,0.748,0.727,0.559504,0.528529
10:19:34,30-Sep-21,0.748,0.727,0.559504,0.528529
10:19:34,30-Sep-21,0.738,0.728,0.544644,0.529984
10:19:34,30-Sep-21,0.738,0.729,0.544644,0.531441
10:19:34,30-Sep-21,0.7235,0.729,0.52345225,0.531441
10:19:34,30-Sep-21,0.7235,0.73,0.52345225,0.5329
10:19:34,30-Sep-21,0.7235,0.73,0.52345225,0.5329
10:19:34,30-Sep-21,0.7235,0.731,0.52345225,0.534361
10:19:34,30-Sep-21,0.7235,0.731,0.52345225,0.534361
10:19:34,30-Sep-21,0.7235,0.731,0.52345225,0.534361
10:19:34,30-Sep-21,0.7235,0.731,0.52345225,0.534361
10:19:34,30-Sep-21,0.7235,0.731,0.52345225,0.534361
10:19:34,30-Sep-21,0.7235,0.732,0.52345225,0.535824
10:19:34,30-Sep-21,0.7235,0.731,0.52345225,0.534361
10:19:34,30-Sep-21,0.7285,0.731,0.53071225,0.534361
10:19:35,30-Sep-21,0.7285,0.731,0.53071225,0.534361
10:19:35,30-Sep-21,0.743,0.731,0.552049,0.534361
10:19:35,30-Sep-21,0.743,0.731,0.552049,0.534361
10:19:35,30-Sep-21,0.743,0.73,0.552049,0.5329
10:19:35,30-Sep-21,0.743,0.73,0.552049,0.5329
10:19:35,30-Sep-21,0.743,0.729,0.552049,0.531441
10:19:35,30-Sep-21,0.743,0.729,0.552049,0.531441
10:19:35,30-Sep-21,0.743,0.728,0.552049,0.529984
10:19:35,30-Sep-21,0.743,0.728,0.552049,0.529984
10:19:35,30-Sep-21,0.738,0.727,0.544644,0.528529
10:19:35,30-Sep-21,0.7235,0.726,0.52345225,0.527076
10:19:35,30-Sep-21,0.7235,0.726,0.52345225,0.527076
10:19:35,30-Sep-21,0.7185,0.725,0.51624225,0.525625
10:19:35,30-Sep-21,0.7185,0.724,0.51624225,0.524176
10:19:35,30-Sep-21,0.7185,0.723,0.51624225,0.522729
10:19:35,30-Sep-21,0.7085,0.723,0.50197225,0.522729
10:19:35,30-Sep-21,0.7085,0.722,0.50197225,0.521284
10:19:35,30-Sep-21,0.704,0.721,0.495616,0.519841
10:19:35,30-Sep-21,0.704,0.721,0.495616,0.519841
10:19:35,30-Sep-21,0.704,0.72,0.495616,0.5184
10:19:35,30-Sep-21,0.704,0.719,0.495616,0.516961
10:19:35,30-Sep-21,0.704,0.719,0.495616,0.516961
10:19:35,30-Sep-21,0.7135,0.718,0.50908225,0.515524
10:19:35,30-Sep-21,0.7135,0.718,0.50908225,0.515524
10:19:35,30-Sep-21,0.7135,0.717,0.50908225,0.514089
10:19:35,30-Sep-21,0.7235,0.717,0.52345225,0.514089
10:19:35,30-Sep-21,0.7235,0.717,0.52345225,0.514089
10:19:35,30-Sep-21,0.7235,0.716,0.52345225,0.512656
10:19:35,30-Sep-21,0.7235,0.716,0.52345225,0.512656
10:19:35,30-Sep-21,0.7235,0.715,0.52345225,0.511225
10:19:35,30-Sep-21,0.7285,0.715,0.53071225,0.511225
10:19:35,30-Sep-21,0.7285,0.715,0.53071225,0.511225
10:19:35,30-Sep-21,0.7285,0.715,0.53071225,0.511225
10:19:35,30-Sep-21,0.7285,0.715,0.53071225,0.511225
10:19:35,30-Sep-21,0.7235,0.714,0.52345225,0.509796
10:19:35,30-Sep-21,0.7235,0.714,0.52345225,0.509796
10:19:35,30-Sep-21,0.7235,0.714,0.52345225,0.509796
10:19:35,30-Sep-21,0.7185,0.714,0.51624225,0.509796
10:19:35,30-Sep-21,0.7185,0.714,0.51624225,0.509796
10:19:35,30-Sep-21,0.7185,0.714,0.51624225,0.509796
10:19:35,30-Sep-21,0.7085,0.714,0.50197225,0.509796
10:19:35,30-Sep-21,0.7085,0.714,0.50197225,0.509796
10:19:35,30-Sep-21,0.704,0.714,0.495616,0.509796
10:19:35,30-Sep-21,0.704,0.715,0.495616,0.511225
10:19:35,30-Sep-21,0.699,0.715,0.488601,0.511225
10:19:35,30-Sep-21,0.699,0.715,0.488601,0.511225
10:19:35,30-Sep-21,0.699,0.716,0.488601,0.512656
10:19:35,30-Sep-21,0.699,0.716,0.488601,0.512656
10:19:35,30-Sep-21,0.704,0.716,0.495616,0.512656
10:19:35,30-Sep-21,0.704,0.717,0.495616,0.514089
10:19:35,30-Sep-21,0.704,0.717,0.495616,0.514089
10:19:35,30-Sep-21,0.7235,0.718,0.52345225,0.515524
10:19:35,30-Sep-21,0.7235,0.719,0.52345225,0.516961
10:19:35,30-Sep-21,0.7235,0.719,0.52345225,0.516961
10:19:35,30-Sep-21,0.7235,0.72,0.52345225,0.5184
10:19:35,30-Sep-21,0.7285,0.72,0.53071225,0.5184
10:19:35,30-Sep-21,0.7285,0.721,0.53071225,0.519841
10:19:35,30-Sep-21,0.7285,0.722,0.53071225,0.521284
10:19:35,30-Sep-21,0.7285,0.722,0.53071225,0.521284
10:19:35,30-Sep-21,0.7235,0.723,0.52345225,0.522729
10:19:35,30-Sep-21,0.7285,0.723,0.53071225,0.522729
10:19:35,30-Sep-21,0.7285,0.724,0.53071225,0.524176
10:19:35,30-Sep-21,0.7185,0.724,0.51624225,0.524176
10:19:35,30-Sep-21,0.7235,0.725,0.52345225,0.525625
10:19:35,30-Sep-21,0.7235,0.725,0.52345225,0.525625
10:19:35,30-Sep-21,0.7235,0.725,0.52345225,0.525625
10:19:35,30-Sep-21,0.7235,0.726,0.52345225,0.527076
10:19:35,30-Sep-21,0.733,0.726,0.537289,0.527076
10:19:35,30-Sep-21,0.738,0.726,0.544644,0.527076
10:19:35,30-Sep-21,0.738,0.726,0.544644,0.527076
10:19:35,30-Sep-21,0.7525,0.726,0.56625625,0.527076
10:19:35,30-Sep-21,0.748,0.726,0.559504,0.527076
10:19:35,30-Sep-21,0.743,0.726,0.552049,0.527076
10:19:35,30-Sep-21,0.743,0.727,0.552049,0.528529
10:19:35,30-Sep-21,0.743,0.727,0.552049,0.528529
10:19:35,30-Sep-21,0.733,0.727,0.537289,0.528529
10:19:35,30-Sep-21,0.7235,0.727,0.52345225,0.528529
10:19:35,30-Sep-21,0.7135,0.726,0.50908225,0.527076
10:19:35,30-Sep-21,0.7135,0.726,0.50908225,0.527076
10:19:35,30-Sep-21,0.7135,0.727,0.50908225,0.528529
10:19:35,30-Sep-21,0.704,0.727,0.495616,0.528529
10:19:35,30-Sep-21,0.704,0.727,0.495616,0.528529
10:19:35,30-Sep-21,0.7085,0.727,0.50197225,0.528529
10:19:35,30-Sep-21,0.7085,0.727,0.50197225,0.528529
10:19:35,30-Sep-21,0.7185,0.727,0.51624225,0.528529
10:19:35,30-Sep-21,0.7235,0.727,0.52345225,0.528529
10:19:35,30-Sep-21,0.733,0.727,0.537289,0.528529
10:19:35,30-Sep-21,0.733,0.728,0.537289,0.529984
10:19:35,30-Sep-21,0.733,0.728,0.537289,0.529984
10:19:35,30-Sep-21,0.733,0.728,0.537289,0.529984
10:19:35,30-Sep-21,0.7235,0.729,0.52345225,0.531441
10:19:35,30-Sep-21,0.7235,0.729,0.52345225,0.531441
10:19:35,30-Sep-21,0.7235,0.73,0.52345225,0.5329
10:19:35,30-Sep-21,0.7235,0.73,0.52345225,0.5329
10:19:35,30-Sep-21,0.7235,0.731,0.52345225,0.534361
10:19:35,30-Sep-21,0.7185,0.731,0.51624225,0.534361
10:19:35,30-Sep-21,0.7185,0.732,0.51624225,0.535824
10:19:35,30-Sep-21,0.7185,0.732,0.51624225,0.535824
10:19:35,30-Sep-21,0.7185,0.733,0.51624225,0.537289
10:19:35,30-Sep-21,0.7235,0.733,0.52345225,0.537289
10:19:35,30-Sep-21,0.743,0.733,0.552049,0.537289
10:19:35,30-Sep-21,0.743,0.734,0.552049,0.538756
10:19:36,30-Sep-21,0.748,0.734,0.559504,0.538756
10:19:36,30-Sep-21,0.7525,0.734,0.56625625,0.538756
10:19:36,30-Sep-21,0.7525,0.734,0.56625625,0.538756
10:19:36,30-Sep-21,0.7525,0.734,0.56625625,0.538756
10:19:36,30-Sep-21,0.7525,0.734,0.56625625,0.538756
10:19:36,30-Sep-21,0.743,0.734,0.552049,0.538756
10:19:36,30-Sep-21,0.743,0.734,0.552049,0.538756
10:19:36,30-Sep-21,0.738,0.733,0.544644,0.537289
10:19:36,30-Sep-21,0.738,0.733,0.544644,0.537289
10:19:36,30-Sep-21,0.7235,0.732,0.52345225,0.535824
10:19:36,30-Sep-21,0.7235,0.732,0.52345225,0.535824
10:19:36,30-Sep-21,0.7235,0.731,0.52345225,0.534361
10:19:36,30-Sep-21,0.7235,0.73,0.52345225,0.5329
10:19:36,30-Sep-21,0.7235,0.73,0.52345225,0.5329
10:19:36,30-Sep-21,0.7285,0.729,0.53071225,0.531441
10:19:36,30-Sep-21,0.743,0.728,0.552049,0.529984
10:19:36,30-Sep-21,0.743,0.727,0.552049,0.528529
10:19:36,30-Sep-21,0.743,0.725,0.552049,0.525625
10:19:36,30-Sep-21,0.743,0.724,0.552049,0.524176
10:19:36,30-Sep-21,0.733,0.723,0.537289,0.522729
10:19:36,30-Sep-21,0.7285,0.722,0.53071225,0.521284
10:19:36,30-Sep-21,0.7285,0.721,0.53071225,0.519841
10:19:36,30-Sep-21,0.7135,0.72,0.50908225,0.5184
10:19:36,30-Sep-21,0.7135,0.719,0.50908225,0.516961
10:19:36,30-Sep-21,0.7085,0.718,0.50197225,0.515524
10:19:36,30-Sep-21,0.699,0.717,0.488601,0.514089
10:19:36,30-Sep-21,0.699,0.716,0.488601,0.512656
10:19:36,30-Sep-21,0.699,0.715,0.488601,0.511225
10:19:36,30-Sep-21,0.699,0.714,0.488601,0.509796
10:19:36,30-Sep-21,0.704,0.713,0.495616,0.508369
10:19:36,30-Sep-21,0.7085,0.713,0.50197225,0.508369
10:19:36,30-Sep-21,0.7185,0.712,0.51624225,0.506944
10:19:36,30-Sep-21,0.7185,0.712,0.51624225,0.506944
10:19:36,30-Sep-21,0.7235,0.712,0.52345225,0.506944
10:19:36,30-Sep-21,0.7235,0.712,0.52345225,0.506944
10:19:36,30-Sep-21,0.7185,0.712,0.51624225,0.506944
10:19:36,30-Sep-21,0.7185,0.712,0.51624225,0.506944
10:19:36,30-Sep-21,0.7185,0.712,0.51624225,0.506944
10:19:36,30-Sep-21,0.7135,0.713,0.50908225,0.508369
10:19:36,30-Sep-21,0.704,0.714,0.495616,0.509796
10:19:36,30-Sep-21,0.704,0.715,0.495616,0.511225
10:19:36,30-Sep-21,0.704,0.716,0.495616,0.512656
10:19:36,30-Sep-21,0.704,0.717,0.495616,0.514089
10:19:36,30-Sep-21,0.704,0.719,0.495616,0.516961
10:19:36,30-Sep-21,0.704,0.72,0.495616,0.5184
10:19:36,30-Sep-21,0.7085,0.722,0.50197225,0.521284
10:19:36,30-Sep-21,0.7235,0.724,0.52345225,0.524176
10:19:36,30-Sep-21,0.7235,0.726,0.52345225,0.527076
10:19:36,30-Sep-21,0.7285,0.728,0.53071225,0.529984
10:19:36,30-Sep-21,0.733,0.73,0.537289,0.5329
10:19:36,30-Sep-21,0.733,0.733,0.537289,0.537289
10:19:36,30-Sep-21,0.733,0.735,0.537289,0.540225
10:19:36,30-Sep-21,0.743,0.738,0.552049,0.544644
10:19:36,30-Sep-21,0.738,0.74,0.544644,0.5476
10:19:36,30-Sep-21,0.748,0.743,0.559504,0.552049
10:19:36,30-Sep-21,0.743,0.746,0.552049,0.556516
10:19:36,30-Sep-21,0.743,0.749,0.552049,0.561001
10:19:36,30-Sep-21,0.743,0.752,0.552049,0.565504
10:19:36,30-Sep-21,0.7525,0.755,0.56625625,0.570025
10:19:36,30-Sep-21,0.7525,0.757,0.56625625,0.573049
10:19:36,30-Sep-21,0.7625,0.76,0.58140625,0.5776
10:19:36,30-Sep-21,0.7625,0.763,0.58140625,0.582169
10:19:36,30-Sep-21,0.777,0.766,0.603729,0.586756
10:19:36,30-Sep-21,0.777,0.769,0.603729,0.591361
10:19:36,30-Sep-21,0.777,0.772,0.603729,0.595984
10:19:36,30-Sep-21,0.777,0.774,0.603729,0.599076
10:19:36,30-Sep-21,0.7965,0.777,0.63441225,0.603729
10:19:36,30-Sep-21,0.7965,0.779,0.63441225,0.606841
10:19:36,30-Sep-21,0.8015,0.782,0.64240225,0.611524
10:19:36,30-Sep-21,0.8015,0.784,0.64240225,0.614656
10:19:36,30-Sep-21,0.8015,0.786,0.64240225,0.617796
10:19:36,30-Sep-21,0.8015,0.788,0.64240225,0.620944
10:19:36,30-Sep-21,0.8015,0.79,0.64240225,0.6241
10:19:36,30-Sep-21,0.792,0.792,0.627264,0.627264
10:19:36,30-Sep-21,0.792,0.794,0.627264,0.630436
10:19:36,30-Sep-21,0.792,0.796,0.627264,0.633616
10:19:36,30-Sep-21,0.787,0.797,0.619369,0.635209
10:19:36,30-Sep-21,0.787,0.799,0.619369,0.638401
10:19:36,30-Sep-21,0.782,0.8,0.611524,0.64
10:19:36,30-Sep-21,0.782,0.802,0.611524,0.643204
10:19:36,30-Sep-21,0.782,0.803,0.611524,0.644809
10:19:36,30-Sep-21,0.787,0.804,0.619369,0.646416
10:19:36,30-Sep-21,0.787,0.806,0.619369,0.649636
10:19:36,30-Sep-21,0.8065,0.807,0.65044225,0.651249
10:19:36,30-Sep-21,0.8065,0.808,0.65044225,0.652864
10:19:36,30-Sep-21,0.8065,0.809,0.65044225,0.654481
10:19:37,30-Sep-21,0.816,0.81,0.665856,0.6561
10:19:37,30-Sep-21,0.826,0.811,0.682276,0.657721
10:19:37,30-Sep-21,0.826,0.811,0.682276,0.657721
10:19:37,30-Sep-21,0.831,0.812,0.690561,0.659344
10:19:37,30-Sep-21,0.826,0.813,0.682276,0.660969
10:19:37,30-Sep-21,0.826,0.814,0.682276,0.662596
10:19:37,30-Sep-21,0.826,0.814,0.682276,0.662596
10:19:37,30-Sep-21,0.821,0.815,0.674041,0.664225
10:19:37,30-Sep-21,0.821,0.815,0.674041,0.664225
10:19:37,30-Sep-21,0.821,0.816,0.674041,0.665856
10:19:37,30-Sep-21,0.816,0.817,0.665856,0.667489
10:19:37,30-Sep-21,0.816,0.817,0.665856,0.667489
10:19:37,30-Sep-21,0.816,0.818,0.665856,0.669124
10:19:37,30-Sep-21,0.8065,0.818,0.65044225,0.669124
10:19:37,30-Sep-21,0.8065,0.819,0.65044225,0.670761
10:19:37,30-Sep-21,0.8015,0.819,0.64240225,0.670761
10:19:37,30-Sep-21,0.8015,0.82,0.64240225,0.6724
10:19:37,30-Sep-21,0.8015,0.82,0.64240225,0.6724
10:19:37,30-Sep-21,0.8015,0.821,0.64240225,0.674041
10:19:37,30-Sep-21,0.8015,0.821,0.64240225,0.674041
10:19:37,30-Sep-21,0.8065,0.822,0.65044225,0.675684
10:19:37,30-Sep-21,0.826,0.823,0.682276,0.677329
10:19:37,30-Sep-21,0.836,0.823,0.698896,0.677329
10:19:37,30-Sep-21,0.8405,0.824,0.70644025,0.678976
10:19:37,30-Sep-21,0.8405,0.825,0.70644025,0.680625
10:19:37,30-Sep-21,0.8405,0.825,0.70644025,0.680625
10:19:37,30-Sep-21,0.8405,0.826,0.70644025,0.682276
10:19:37,30-Sep-21,0.8405,0.827,0.70644025,0.683929
10:19:37,30-Sep-21,0.8405,0.827,0.70644025,0.683929
10:19:37,30-Sep-21,0.831,0.828,0.690561,0.685584
10:19:37,30-Sep-21,0.831,0.829,0.690561,0.687241
10:19:37,30-Sep-21,0.826,0.829,0.682276,0.687241
10:19:37,30-Sep-21,0.821,0.83,0.674041,0.6889
10:19:37,30-Sep-21,0.821,0.831,0.674041,0.690561
10:19:37,30-Sep-21,0.821,0.831,0.674041,0.690561
10:19:37,30-Sep-21,0.816,0.832,0.665856,0.692224
10:19:37,30-Sep-21,0.816,0.833,0.665856,0.693889
10:19:37,30-Sep-21,0.821,0.834,0.674041,0.695556
10:19:37,30-Sep-21,0.826,0.834,0.682276,0.695556
10:19:37,30-Sep-21,0.826,0.835,0.682276,0.697225
10:19:37,30-Sep-21,0.8455,0.836,0.71487025,0.698896
10:19:37,30-Sep-21,0.8455,0.836,0.71487025,0.698896
10:19:37,30-Sep-21,0.8455,0.837,0.71487025,0.700569
10:19:37,30-Sep-21,0.8505,0.837,0.72335025,0.700569
10:19:37,30-Sep-21,0.8555,0.838,0.73188025,0.702244
10:19:37,30-Sep-21,0.8555,0.839,0.73188025,0.703921
10:19:37,30-Sep-21,0.8505,0.839,0.72335025,0.703921
10:19:37,30-Sep-21,0.8505,0.84,0.72335025,0.7056
10:19:37,30-Sep-21,0.8505,0.84,0.72335025,0.7056
10:19:37,30-Sep-21,0.8405,0.841,0.70644025,0.707281
10:19:37,30-Sep-21,0.8405,0.841,0.70644025,0.707281
10:19:37,30-Sep-21,0.8405,0.842,0.70644025,0.708964
10:19:37,30-Sep-21,0.836,0.842,0.698896,0.708964
10:19:37,30-Sep-21,0.836,0.843,0.698896,0.710649
10:19:37,30-Sep-21,0.831,0.843,0.690561,0.710649
10:19:37,30-Sep-21,0.826,0.843,0.682276,0.710649
10:19:37,30-Sep-21,0.826,0.844,0.682276,0.712336
10:19:37,30-Sep-21,0.8405,0.844,0.70644025,0.712336
10:19:37,30-Sep-21,0.8405,0.845,0.70644025,0.714025
10:19:37,30-Sep-21,0.8455,0.845,0.71487025,0.714025
10:19:37,30-Sep-21,0.8455,0.846,0.71487025,0.715716
10:19:37,30-Sep-21,0.8505,0.846,0.72335025,0.715716
10:19:37,30-Sep-21,0.86,0.847,0.7396,0.717409
10:19:37,30-Sep-21,0.86,0.847,0.7396,0.717409
10:19:37,30-Sep-21,0.86,0.848,0.7396,0.719104
10:19:37,30-Sep-21,0.86,0.848,0.7396,0.719104
10:19:37,30-Sep-21,0.8555,0.849,0.73188025,0.720801
10:19:37,30-Sep-21,0.8555,0.849,0.73188025,0.720801
10:19:37,30-Sep-21,0.8555,0.85,0.73188025,0.7225
10:19:37,30-Sep-21,0.8455,0.85,0.71487025,0.7225
10:19:37,30-Sep-21,0.8455,0.851,0.71487025,0.724201
10:19:37,30-Sep-21,0.8455,0.851,0.71487025,0.724201
10:19:37,30-Sep-21,0.8405,0.852,0.70644025,0.725904
10:19:37,30-Sep-21,0.8405,0.852,0.70644025,0.725904
10:19:37,30-Sep-21,0.8405,0.853,0.70644025,0.727609
10:19:37,30-Sep-21,0.8405,0.854,0.70644025,0.729316
10:19:37,30-Sep-21,0.8405,0.854,0.70644025,0.729316
10:19:37,30-Sep-21,0.8405,0.855,0.70644025,0.731025
10:19:37,30-Sep-21,0.8405,0.855,0.70644025,0.731025
10:19:37,30-Sep-21,0.8405,0.856,0.70644025,0.732736
10:19:37,30-Sep-21,0.8405,0.856,0.70644025,0.732736
10:19:37,30-Sep-21,0.8405,0.857,0.70644025,0.734449
10:19:37,30-Sep-21,0.8455,0.857,0.71487025,0.734449
10:19:37,30-Sep-21,0.87,0.857,0.7569,0.734449
10:19:37,30-Sep-21,0.87,0.857,0.7569,0.734449
10:19:37,30-Sep-21,0.875,0.857,0.765625,0.734449
10:19:37,30-Sep-21,0.88,0.857,0.7744,0.734449
10:19:37,30-Sep-21,0.88,0.857,0.7744,0.734449
10:19:37,30-Sep-21,0.88,0.857,0.7744,0.734449
10:19:37,30-Sep-21,0.87,0.857,0.7569,0.734449
10:19:37,30-Sep-21,0.87,0.857,0.7569,0.734449
10:19:37,30-Sep-21,0.865,0.856,0.748225,0.732736
10:19:37,30-Sep-21,0.8505,0.855,0.72335025,0.731025
10:19:37,30-Sep-21,0.8455,0.855,0.71487025,0.731025
10:19:37,30-Sep-21,0.8455,0.854,0.71487025,0.729316
10:19:37,30-Sep-21,0.8455,0.853,0.71487025,0.727609
10:19:37,30-Sep-21,0.8455,0.852,0.71487025,0.725904
10:19:37,30-Sep-21,0.8455,0.851,0.71487025,0.724201
10:19:37,30-Sep-21,0.8455,0.849,0.71487025,0.720801
10:19:37,30-Sep-21,0.8455,0.848,0.71487025,0.719104
10:19:38,30-Sep-21,0.86,0.846,0.7396,0.715716
10:19:38,30-Sep-21,0.8555,0.845,0.73188025,0.714025
10:19:38,30-Sep-21,0.8555,0.843,0.73188025,0.710649
10:19:38,30-Sep-21,0.8505,0.841,0.72335025,0.707281
10:19:38,30-Sep-21,0.8505,0.84,0.72335025,0.7056
10:19:38,30-Sep-21,0.8505,0.838,0.72335025,0.702244
10:19:38,30-Sep-21,0.8455,0.836,0.71487025,0.698896
10:19:38,30-Sep-21,0.8455,0.834,0.71487025,0.695556
10:19:38,30-Sep-21,0.831,0.832,0.690561,0.692224
10:19:38,30-Sep-21,0.831,0.831,0.690561,0.690561
10:19:38,30-Sep-21,0.826,0.829,0.682276,0.687241
10:19:38,30-Sep-21,0.826,0.827,0.682276,0.683929
10:19:38,30-Sep-21,0.8115,0.825,0.65853225,0.680625
10:19:38,30-Sep-21,0.8115,0.824,0.65853225,0.678976
10:19:38,30-Sep-21,0.8115,0.822,0.65853225,0.675684
10:19:38,30-Sep-21,0.8065,0.821,0.65044225,0.674041
10:19:38,30-Sep-21,0.8065,0.82,0.65044225,0.6724
10:19:38,30-Sep-21,0.8065,0.818,0.65044225,0.669124
10:19:38,30-Sep-21,0.816,0.817,0.665856,0.667489
10:19:38,30-Sep-21,0.816,0.816,0.665856,0.665856
10:19:38,30-Sep-21,0.821,0.816,0.674041,0.665856
10:19:38,30-Sep-21,0.821,0.815,0.674041,0.664225
10:19:38,30-Sep-21,0.821,0.815,0.674041,0.664225
10:19:38,30-Sep-21,0.831,0.815,0.690561,0.664225
10:19:38,30-Sep-21,0.826,0.815,0.682276,0.664225
10:19:38,30-Sep-21,0.826,0.815,0.682276,0.664225
10:19:38,30-Sep-21,0.821,0.815,0.674041,0.664225
10:19:38,30-Sep-21,0.821,0.816,0.674041,0.665856
10:19:38,30-Sep-21,0.816,0.817,0.665856,0.667489
10:19:38,30-Sep-21,0.816,0.818,0.665856,0.669124
10:19:38,30-Sep-21,0.816,0.819,0.665856,0.670761
10:19:38,30-Sep-21,0.8015,0.821,0.64240225,0.674041
10:19:38,30-Sep-21,0.8015,0.823,0.64240225,0.677329
10:19:38,30-Sep-21,0.8015,0.825,0.64240225,0.680625
10:19:38,30-Sep-21,0.8015,0.827,0.64240225,0.683929
10:19:38,30-Sep-21,0.8015,0.829,0.64240225,0.687241
10:19:38,30-Sep-21,0.8115,0.832,0.65853225,0.692224
10:19:38,30-Sep-21,0.8115,0.834,0.65853225,0.695556
10:19:38,30-Sep-21,0.8405,0.837,0.70644025,0.700569
10:19:38,30-Sep-21,0.8405,0.84,0.70644025,0.7056
10:19:38,30-Sep-21,0.8505,0.844,0.72335025,0.712336
10:19:38,30-Sep-21,0.8505,0.847,0.72335025,0.717409
10:19:38,30-Sep-21,0.865,0.85,0.748225,0.7225
10:19:38,30-Sep-21,0.865,0.854,0.748225,0.729316
10:19:38,30-Sep-21,0.875,0.857,0.765625,0.734449
10:19:38,30-Sep-21,0.875,0.861,0.765625,0.741321
10:19:38,30-Sep-21,0.875,0.865,0.765625,0.748225
10:19:38,30-Sep-21,0.875,0.868,0.765625,0.753424
10:19:38,30-Sep-21,0.875,0.872,0.765625,0.760384
10:19:38,30-Sep-21,0.88,0.876,0.7744,0.767376
10:19:38,30-Sep-21,0.88,0.879,0.7744,0.772641
10:19:38,30-Sep-21,0.8845,0.883,0.78234025,0.779689
10:19:38,30-Sep-21,0.88,0.886,0.7744,0.784996
10:19:38,30-Sep-21,0.88,0.89,0.7744,0.7921
10:19:38,30-Sep-21,0.8845,0.893,0.78234025,0.797449
10:19:38,30-Sep-21,0.8945,0.896,0.80013025,0.802816
10:19:38,30-Sep-21,0.8945,0.9,0.80013025,0.81
10:19:38,30-Sep-21,0.8945,0.903,0.80013025,0.815409
10:19:38,30-Sep-21,0.904,0.906,0.817216,0.820836
10:19:38,30-Sep-21,0.924,0.908,0.853776,0.824464
10:19:38,30-Sep-21,0.9335,0.911,0.87142225,0.829921
10:19:38,30-Sep-21,0.9335,0.914,0.87142225,0.835396
10:19:38,30-Sep-21,0.9335,0.916,0.87142225,0.839056
10:19:38,30-Sep-21,0.9335,0.918,0.87142225,0.842724
10:19:38,30-Sep-21,0.9335,0.92,0.87142225,0.8464
10:19:38,30-Sep-21,0.9335,0.922,0.87142225,0.850084
10:19:38,30-Sep-21,0.9335,0.924,0.87142225,0.853776
10:19:38,30-Sep-21,0.9335,0.926,0.87142225,0.857476
10:19:38,30-Sep-21,0.9285,0.927,0.86211225,0.859329
10:19:38,30-Sep-21,0.9285,0.928,0.86211225,0.861184
10:19:38,30-Sep-21,0.919,0.93,0.844561,0.8649
10:19:38,30-Sep-21,0.919,0.931,0.844561,0.866761
10:19:38,30-Sep-21,0.919,0.932,0.844561,0.868624
10:19:38,30-Sep-21,0.909,0.933,0.826281,0.870489
10:19:38,30-Sep-21,0.909,0.933,0.826281,0.870489
10:19:38,30-Sep-21,0.909,0.934,0.826281,0.872356
10:19:38,30-Sep-21,0.924,0.935,0.853776,0.874225
10:19:38,30-Sep-21,0.924,0.935,0.853776,0.874225
10:19:38,30-Sep-21,0.9335,0.935,0.87142225,0.874225
10:19:38,30-Sep-21,0.9335,0.936,0.87142225,0.876096
10:19:38,30-Sep-21,0.953,0.936,0.908209,0.876096
10:19:38,30-Sep-21,0.953,0.936,0.908209,0.876096
10:19:38,30-Sep-21,0.953,0.936,0.908209,0.876096
10:19:38,30-Sep-21,0.953,0.936,0.908209,0.876096
10:19:38,30-Sep-21,0.948,0.936,0.898704,0.876096
10:19:38,30-Sep-21,0.9435,0.936,0.89019225,0.876096
10:19:38,30-Sep-21,0.9435,0.936,0.89019225,0.876096
10:19:38,30-Sep-21,0.9285,0.935,0.86211225,0.874225
10:19:38,30-Sep-21,0.924,0.935,0.853776,0.874225
10:19:38,30-Sep-21,0.924,0.935,0.853776,0.874225
10:19:38,30-Sep-21,0.919,0.934,0.844561,0.872356
10:19:38,30-Sep-21,0.919,0.934,0.844561,0.872356
10:19:38,30-Sep-21,0.919,0.933,0.844561,0.870489
10:19:38,30-Sep-21,0.9335,0.933,0.87142225,0.870489
10:19:38,30-Sep-21,0.9385,0.932,0.88078225,0.868624
10:19:38,30-Sep-21,0.9385,0.931,0.88078225,0.866761
10:19:38,30-Sep-21,0.9385,0.931,0.88078225,0.866761
10:19:39,30-Sep-21,0.9385,0.93,0.88078225,0.8649
10:19:39,30-Sep-21,0.9385,0.93,0.88078225,0.8649
10:19:39,30-Sep-21,0.9385,0.929,0.88078225,0.863041
10:19:39,30-Sep-21,0.9385,0.928,0.88078225,0.861184
10:19:39,30-Sep-21,0.9385,0.927,0.88078225,0.859329
10:19:39,30-Sep-21,0.9335,0.926,0.87142225,0.857476
10:19:39,30-Sep-21,0.9335,0.926,0.87142225,0.857476
10:19:39,30-Sep-21,0.924,0.925,0.853776,0.855625
10:19:39,30-Sep-21,0.924,0.924,0.853776,0.853776
10:19:39,30-Sep-21,0.914,0.923,0.835396,0.851929
10:19:39,30-Sep-21,0.914,0.922,0.835396,0.850084
10:19:39,30-Sep-21,0.914,0.921,0.835396,0.848241
10:19:39,30-Sep-21,0.8995,0.92,0.80910025,0.8464
10:19:39,30-Sep-21,0.8945,0.919,0.80013025,0.844561
10:19:39,30-Sep-21,0.8945,0.918,0.80013025,0.842724
10:19:39,30-Sep-21,0.8945,0.917,0.80013025,0.840889
10:19:39,30-Sep-21,0.8945,0.916,0.80013025,0.839056
10:19:39,30-Sep-21,0.8995,0.915,0.80910025,0.837225
10:19:39,30-Sep-21,0.919,0.914,0.844561,0.835396
10:19:39,30-Sep-21,0.919,0.912,0.844561,0.831744
10:19:39,30-Sep-21,0.919,0.911,0.844561,0.829921
10:19:39,30-Sep-21,0.919,0.909,0.844561,0.826281
10:19:39,30-Sep-21,0.914,0.907,0.835396,0.822649
10:19:39,30-Sep-21,0.909,0.905,0.826281,0.819025
10:19:39,30-Sep-21,0.909,0.903,0.826281,0.815409
10:19:39,30-Sep-21,0.8945,0.901,0.80013025,0.811801
10:19:39,30-Sep-21,0.8945,0.899,0.80013025,0.808201
10:19:39,30-Sep-21,0.8895,0.896,0.79121025,0.802816
10:19:39,30-Sep-21,0.88,0.893,0.7744,0.797449
10:19:39,30-Sep-21,0.875,0.89,0.765625,0.7921
10:19:39,30-Sep-21,0.875,0.887,0.765625,0.786769
10:19:39,30-Sep-21,0.875,0.884,0.765625,0.781456
10:19:39,30-Sep-21,0.8845,0.88,0.78234025,0.7744
10:19:39,30-Sep-21,0.8845,0.876,0.78234025,0.767376
10:19:39,30-Sep-21,0.8845,0.872,0.78234025,0.760384
10:19:39,30-Sep-21,0.8845,0.867,0.78234025,0.751689
10:19:39,30-Sep-21,0.8945,0.863,0.80013025,0.744769
10:19:39,30-Sep-21,0.8945,0.858,0.80013025,0.736164
10:19:39,30-Sep-21,0.8895,0.852,0.79121025,0.725904
10:19:39,30-Sep-21,0.8895,0.847,0.79121025,0.717409
10:19:39,30-Sep-21,0.875,0.841,0.765625,0.707281
10:19:39,30-Sep-21,0.875,0.836,0.765625,0.698896
10:19:39,30-Sep-21,0.875,0.83,0.765625,0.6889
10:19:39,30-Sep-21,0.8555,0.824,0.73188025,0.678976
10:19:39,30-Sep-21,0.821,0.817,0.674041,0.667489
10:19:39,30-Sep-21,0.792,0.811,0.627264,0.657721
10:19:39,30-Sep-21,0.792,0.805,0.627264,0.648025
10:19:39,30-Sep-21,0.772,0.798,0.595984,0.636804
10:19:39,30-Sep-21,0.772,0.792,0.595984,0.627264
10:19:39,30-Sep-21,0.7575,0.786,0.57380625,0.617796
10:19:39,30-Sep-21,0.743,0.78,0.552049,0.6084
10:19:39,30-Sep-21,0.743,0.773,0.552049,0.597529
10:19:39,30-Sep-21,0.748,0.767,0.559504,0.588289
10:19:39,30-Sep-21,0.738,0.761,0.544644,0.579121
10:19:39,30-Sep-21,0.738,0.755,0.544644,0.570025
10:19:39,30-Sep-21,0.738,0.75,0.544644,0.5625
10:19:39,30-Sep-21,0.733,0.744,0.537289,0.553536
10:19:39,30-Sep-21,0.733,0.739,0.537289,0.546121
10:19:39,30-Sep-21,0.733,0.734,0.537289,0.538756
10:19:39,30-Sep-21,0.733,0.73,0.537289,0.5329
10:19:39,30-Sep-21,0.733,0.725,0.537289,0.525625
10:19:39,30-Sep-21,0.7285,0.721,0.53071225,0.519841
10:19:39,30-Sep-21,0.7135,0.717,0.50908225,0.514089
10:19:39,30-Sep-21,0.7135,0.713,0.50908225,0.508369
10:19:39,30-Sep-21,0.7135,0.71,0.50908225,0.5041
10:19:39,30-Sep-21,0.704,0.707,0.495616,0.499849
10:19:39,30-Sep-21,0.704,0.704,0.495616,0.495616
10:19:39,30-Sep-21,0.704,0.701,0.495616,0.491401
10:19:39,30-Sep-21,0.704,0.699,0.495616,0.488601
10:19:39,30-Sep-21,0.704,0.697,0.495616,0.485809
10:19:39,30-Sep-21,0.699,0.695,0.488601,0.483025
10:19:39,30-Sep-21,0.6845,0.694,0.46854025,0.481636
10:19:39,30-Sep-21,0.6845,0.693,0.46854025,0.480249
10:19:39,30-Sep-21,0.6845,0.692,0.46854025,0.478864
10:19:39,30-Sep-21,0.6845,0.691,0.46854025,0.477481
10:19:39,30-Sep-21,0.6845,0.691,0.46854025,0.477481
10:19:39,30-Sep-21,0.6845,0.691,0.46854025,0.477481
10:19:39,30-Sep-21,0.694,0.691,0.481636,0.477481
10:19:39,30-Sep-21,0.694,0.691,0.481636,0.477481
10:19:39,30-Sep-21,0.694,0.692,0.481636,0.478864
10:19:39,30-Sep-21,0.704,0.693,0.495616,0.480249
10:19:39,30-Sep-21,0.704,0.694,0.495616,0.481636
10:19:39,30-Sep-21,0.704,0.695,0.495616,0.483025
10:19:39,30-Sep-21,0.704,0.696,0.495616,0.484416
10:19:39,30-Sep-21,0.704,0.697,0.495616,0.485809
10:19:39,30-Sep-21,0.704,0.699,0.495616,0.488601
10:19:39,30-Sep-21,0.694,0.701,0.481636,0.491401
10:19:39,30-Sep-21,0.694,0.702,0.481636,0.492804
10:19:39,30-Sep-21,0.699,0.704,0.488601,0.495616
10:19:39,30-Sep-21,0.699,0.706,0.488601,0.498436
10:19:39,30-Sep-21,0.694,0.708,0.481636,0.501264
10:19:39,30-Sep-21,0.694,0.711,0.481636,0.505521
10:19:39,30-Sep-21,0.699,0.713,0.488601,0.508369
10:19:39,30-Sep-21,0.699,0.715,0.488601,0.511225
10:19:39,30-Sep-21,0.7135,0.717,0.50908225,0.514089
10:19:39,30-Sep-21,0.7235,0.719,0.52345225,0.516961
10:19:39,30-Sep-21,0.7235,0.721,0.52345225,0.519841
10:19:39,30-Sep-21,0.738,0.724,0.544644,0.524176
10:19:40,30-Sep-21,0.738,0.726,0.544644,0.527076
10:19:40,30-Sep-21,0.738,0.728,0.544644,0.529984
10:19:40,30-Sep-21,0.743,0.729,0.552049,0.531441
10:19:40,30-Sep-21,0.748,0.731,0.559504,0.534361
10:19:40,30-Sep-21,0.748,0.733,0.559504,0.537289
10:19:40,30-Sep-21,0.748,0.735,0.559504,0.540225
10:19:40,30-Sep-21,0.748,0.736,0.559504,0.541696
10:19:40,30-Sep-21,0.743,0.738,0.552049,0.544644
10:19:40,30-Sep-21,0.743,0.739,0.552049,0.546121
10:19:40,30-Sep-21,0.738,0.74,0.544644,0.5476
10:19:40,30-Sep-21,0.733,0.741,0.537289,0.549081
10:19:40,30-Sep-21,0.733,0.742,0.537289,0.550564
10:19:40,30-Sep-21,0.7285,0.743,0.53071225,0.552049
10:19:40,30-Sep-21,0.7285,0.743,0.53071225,0.552049
10:19:40,30-Sep-21,0.733,0.744,0.537289,0.553536
10:19:40,30-Sep-21,0.733,0.744,0.537289,0.553536
10:19:40,30-Sep-21,0.743,0.745,0.552049,0.555025
10:19:40,30-Sep-21,0.7525,0.745,0.56625625,0.555025
10:19:40,30-Sep-21,0.7575,0.745,0.57380625,0.555025
10:19:40,30-Sep-21,0.7575,0.745,0.57380625,0.555025
10:19:40,30-Sep-21,0.7575,0.744,0.57380625,0.553536
10:19:40,30-Sep-21,0.7575,0.744,0.57380625,0.553536
10:19:40,30-Sep-21,0.7525,0.744,0.56625625,0.553536
10:19:40,30-Sep-21,0.7525,0.743,0.56625625,0.552049
10:19:40,30-Sep-21,0.7525,0.743,0.56625625,0.552049
10:19:40,30-Sep-21,0.7525,0.742,0.56625625,0.550564
10:19:40,30-Sep-21,0.743,0.741,0.552049,0.549081
10:19:40,30-Sep-21,0.743,0.741,0.552049,0.549081
10:19:40,30-Sep-21,0.738,0.74,0.544644,0.5476
10:19:40,30-Sep-21,0.7235,0.739,0.52345225,0.546121
10:19:40,30-Sep-21,0.7235,0.738,0.52345225,0.544644
10:19:40,30-Sep-21,0.7235,0.737,0.52345225,0.543169
10:19:40,30-Sep-21,0.7235,0.736,0.52345225,0.541696
10:19:40,30-Sep-21,0.7185,0.735,0.51624225,0.540225
10:19:40,30-Sep-21,0.7235,0.734,0.52345225,0.538756
10:19:40,30-Sep-21,0.7235,0.734,0.52345225,0.538756
10:19:40,30-Sep-21,0.7235,0.733,0.52345225,0.537289
10:19:40,30-Sep-21,0.738,0.732,0.544644,0.535824
10:19:40,30-Sep-21,0.738,0.731,0.544644,0.534361
10:19:40,30-Sep-21,0.738,0.73,0.544644,0.5329
10:19:40,30-Sep-21,0.738,0.73,0.544644,0.5329
10:19:40,30-Sep-21,0.733,0.729,0.537289,0.531441
10:19:40,30-Sep-21,0.733,0.728,0.537289,0.529984
10:19:40,30-Sep-21,0.733,0.728,0.537289,0.529984
10:19:40,30-Sep-21,0.733,0.727,0.537289,0.528529
10:19:40,30-Sep-21,0.733,0.727,0.537289,0.528529
10:19:40,30-Sep-21,0.7235,0.726,0.52345225,0.527076
10:19:40,30-Sep-21,0.7185,0.726,0.51624225,0.527076
10:19:40,30-Sep-21,0.7185,0.725,0.51624225,0.525625
10:19:40,30-Sep-21,0.7135,0.725,0.50908225,0.525625
10:19:40,30-Sep-21,0.7085,0.725,0.50197225,0.525625
10:19:40,30-Sep-21,0.7085,0.725,0.50197225,0.525625
10:19:40,30-Sep-21,0.7185,0.724,0.51624225,0.524176
10:19:40,30-Sep-21,0.7185,0.724,0.51624225,0.524176
10:19:40,30-Sep-21,0.7185,0.724,0.51624225,0.524176
10:19:40,30-Sep-21,0.7235,0.724,0.52345225,0.524176
10:19:40,30-Sep-21,0.7235,0.724,0.52345225,0.524176
10:19:40,30-Sep-21,0.7285,0.724,0.53071225,0.524176
10:19:40,30-Sep-21,0.7285,0.724,0.53071225,0.524176
10:19:40,30-Sep-21,0.738,0.724,0.544644,0.524176
10:19:40,30-Sep-21,0.738,0.724,0.544644,0.524176
10:19:40,30-Sep-21,0.738,0.724,0.544644,0.524176
10:19:40,30-Sep-21,0.738,0.724,0.544644,0.524176
10:19:40,30-Sep-21,0.733,0.724,0.537289,0.524176
10:19:40,30-Sep-21,0.733,0.724,0.537289,0.524176
10:19:40,30-Sep-21,0.7285,0.724,0.53071225,0.524176
10:19:40,30-Sep-21,0.7185,0.724,0.51624225,0.524176
10:19:40,30-Sep-21,0.7135,0.724,0.50908225,0.524176
10:19:40,30-Sep-21,0.7135,0.724,0.50908225,0.524176
10:19:40,30-Sep-21,0.7135,0.724,0.50908225,0.524176
10:19:40,30-Sep-21,0.7135,0.724,0.50908225,0.524176
10:19:40,30-Sep-21,0.7135,0.723,0.50908225,0.522729
10:19:40,30-Sep-21,0.7135,0.723,0.50908225,0.522729
10:19:40,30-Sep-21,0.7135,0.723,0.50908225,0.522729
10:19:40,30-Sep-21,0.733,0.723,0.537289,0.522729
10:19:40,30-Sep-21,0.733,0.722,0.537289,0.521284
10:19:40,30-Sep-21,0.733,0.722,0.537289,0.521284
10:19:40,30-Sep-21,0.733,0.722,0.537289,0.521284
10:19:40,30-Sep-21,0.733,0.721,0.537289,0.519841
10:19:40,30-Sep-21,0.733,0.721,0.537289,0.519841
10:19:40,30-Sep-21,0.733,0.721,0.537289,0.519841
10:19:40,30-Sep-21,0.733,0.72,0.537289,0.5184
10:19:40,30-Sep-21,0.7235,0.72,0.52345225,0.5184
10:19:40,30-Sep-21,0.7235,0.719,0.52345225,0.516961
10:19:40,30-Sep-21,0.7185,0.719,0.51624225,0.516961
10:19:40,30-Sep-21,0.7185,0.718,0.51624225,0.515524
10:19:40,30-Sep-21,0.7085,0.718,0.50197225,0.515524
10:19:40,30-Sep-21,0.7085,0.717,0.50197225,0.514089
10:19:40,30-Sep-21,0.7085,0.717,0.50197225,0.514089
10:19:40,30-Sep-21,0.704,0.717,0.495616,0.514089
10:19:40,30-Sep-21,0.704,0.716,0.495616,0.512656
10:19:40,30-Sep-21,0.704,0.716,0.495616,0.512656
10:19:40,30-Sep-21,0.704,0.715,0.495616,0.511225
10:19:40,30-Sep-21,0.704,0.715,0.495616,0.511225
10:19:40,30-Sep-21,0.704,0.715,0.495616,0.511225
10:19:40,30-Sep-21,0.704,0.714,0.495616,0.509796
10:19:40,30-Sep-21,0.7235,0.714,0.52345225,0.509796
10:19:40,30-Sep-21,0.7235,0.714,0.52345225,0.509796
10:19:41,30-Sep-21,0.7235,0.714,0.52345225,0.509796
10:19:41,30-Sep-21,0.7235,0.714,0.52345225,0.509796
10:19:41,30-Sep-21,0.7235,0.714,0.52345225,0.509796
10:19:41,30-Sep-21,0.7235,0.714,0.52345225,0.509796
10:19:41,30-Sep-21,0.7235,0.713,0.52345225,0.508369
10:19:41,30-Sep-21,0.7235,0.713,0.52345225,0.508369
10:19:41,30-Sep-21,0.7135,0.714,0.50908225,0.509796
10:19:41,30-Sep-21,0.7135,0.714,0.50908225,0.509796
10:19:41,30-Sep-21,0.7135,0.714,0.50908225,0.509796
10:19:41,30-Sep-21,0.7085,0.714,0.50197225,0.509796
10:19:41,30-Sep-21,0.7085,0.714,0.50197225,0.509796
10:19:41,30-Sep-21,0.7085,0.714,0.50197225,0.509796
10:19:41,30-Sep-21,0.7085,0.715,0.50197225,0.511225
10:19:41,30-Sep-21,0.704,0.715,0.495616,0.511225
10:19:41,30-Sep-21,0.704,0.715,0.495616,0.511225
10:19:41,30-Sep-21,0.704,0.716,0.495616,0.512656
10:19:41,30-Sep-21,0.704,0.716,0.495616,0.512656
10:19:41,30-Sep-21,0.704,0.716,0.495616,0.512656
10:19:41,30-Sep-21,0.7235,0.717,0.52345225,0.514089
10:19:41,30-Sep-21,0.7235,0.717,0.52345225,0.514089
10:19:41,30-Sep-21,0.733,0.718,0.537289,0.515524
10:19:41,30-Sep-21,0.733,0.718,0.537289,0.515524
10:19:41,30-Sep-21,0.733,0.719,0.537289,0.516961
10:19:41,30-Sep-21,0.7285,0.72,0.53071225,0.5184
10:19:41,30-Sep-21,0.7285,0.72,0.53071225,0.5184
10:19:41,30-Sep-21,0.7285,0.721,0.53071225,0.519841
10:19:41,30-Sep-21,0.7285,0.722,0.53071225,0.521284
10:19:41,30-Sep-21,0.7235,0.722,0.52345225,0.521284
10:19:41,30-Sep-21,0.7135,0.723,0.50908225,0.522729
10:19:41,30-Sep-21,0.7135,0.724,0.50908225,0.524176
10:19:41,30-Sep-21,0.7135,0.724,0.50908225,0.524176
10:19:41,30-Sep-21,0.7135,0.725,0.50908225,0.525625
10:19:41,30-Sep-21,0.7135,0.726,0.50908225,0.527076
10:19:41,30-Sep-21,0.7135,0.727,0.50908225,0.528529
10:19:41,30-Sep-21,0.733,0.727,0.537289,0.528529
10:19:41,30-Sep-21,0.733,0.728,0.537289,0.529984
10:19:41,30-Sep-21,0.738,0.729,0.544644,0.531441
10:19:41,30-Sep-21,0.738,0.73,0.544644,0.5329
10:19:41,30-Sep-21,0.743,0.731,0.552049,0.534361
10:19:41,30-Sep-21,0.743,0.731,0.552049,0.534361
10:19:41,30-Sep-21,0.743,0.732,0.552049,0.535824
10:19:41,30-Sep-21,0.743,0.733,0.552049,0.537289
10:19:41,30-Sep-21,0.743,0.734,0.552049,0.538756
10:19:41,30-Sep-21,0.733,0.735,0.537289,0.540225
10:19:41,30-Sep-21,0.733,0.736,0.537289,0.541696
10:19:41,30-Sep-21,0.7285,0.737,0.53071225,0.543169
10:19:41,30-Sep-21,0.7235,0.738,0.52345225,0.544644
10:19:41,30-Sep-21,0.7235,0.739,0.52345225,0.546121
10:19:41,30-Sep-21,0.7235,0.739,0.52345225,0.546121
10:19:41,30-Sep-21,0.7235,0.74,0.52345225,0.5476
10:19:41,30-Sep-21,0.7285,0.741,0.53071225,0.549081
10:19:41,30-Sep-21,0.7285,0.742,0.53071225,0.550564
10:19:41,30-Sep-21,0.733,0.743,0.537289,0.552049
10:19:41,30-Sep-21,0.733,0.744,0.537289,0.553536
10:19:41,30-Sep-21,0.7525,0.745,0.56625625,0.555025
10:19:41,30-Sep-21,0.7525,0.745,0.56625625,0.555025
10:19:41,30-Sep-21,0.7575,0.746,0.57380625,0.556516
10:19:41,30-Sep-21,0.7575,0.747,0.57380625,0.558009
10:19:41,30-Sep-21,0.7625,0.748,0.58140625,0.559504
10:19:41,30-Sep-21,0.7625,0.748,0.58140625,0.559504
10:19:41,30-Sep-21,0.7575,0.749,0.57380625,0.561001
10:19:41,30-Sep-21,0.7575,0.749,0.57380625,0.561001
10:19:41,30-Sep-21,0.7575,0.75,0.57380625,0.5625
10:19:41,30-Sep-21,0.7575,0.75,0.57380625,0.5625
10:19:41,30-Sep-21,0.748,0.75,0.559504,0.5625
10:19:41,30-Sep-21,0.748,0.751,0.559504,0.564001
10:19:41,30-Sep-21,0.738,0.751,0.544644,0.564001
10:19:41,30-Sep-21,0.738,0.751,0.544644,0.564001
10:19:41,30-Sep-21,0.738,0.751,0.544644,0.564001
10:19:41,30-Sep-21,0.748,0.751,0.559504,0.564001
10:19:41,30-Sep-21,0.748,0.751,0.559504,0.564001
10:19:41,30-Sep-21,0.748,0.75,0.559504,0.5625
10:19:41,30-Sep-21,0.7575,0.75,0.57380625,0.5625
10:19:41,30-Sep-21,0.7625,0.75,0.58140625,0.5625
10:19:41,30-Sep-21,0.7625,0.749,0.58140625,0.561001
10:19:41,30-Sep-21,0.7625,0.749,0.58140625,0.561001
10:19:41,30-Sep-21,0.7575,0.748,0.57380625,0.559504
10:19:41,30-Sep-21,0.7575,0.748,0.57380625,0.559504
10:19:41,30-Sep-21,0.7525,0.747,0.56625625,0.558009
10:19:41,30-Sep-21,0.738,0.746,0.544644,0.556516
10:19:41,30-Sep-21,0.738,0.745,0.544644,0.555025
10:19:41,30-Sep-21,0.733,0.745,0.537289,0.555025
10:19:41,30-Sep-21,0.7285,0.744,0.53071225,0.553536
10:19:41,30-Sep-21,0.7285,0.743,0.53071225,0.552049
10:19:41,30-Sep-21,0.7285,0.742,0.53071225,0.550564
10:19:41,30-Sep-21,0.7285,0.741,0.53071225,0.549081
10:19:41,30-Sep-21,0.748,0.74,0.559504,0.5476
10:19:41,30-Sep-21,0.748,0.739,0.559504,0.546121
10:19:41,30-Sep-21,0.748,0.738,0.559504,0.544644
10:19:42,30-Sep-21,0.748,0.737,0.559504,0.543169
10:19:42,30-Sep-21,0.748,0.736,0.559504,0.541696
10:19:42,30-Sep-21,0.748,0.735,0.559504,0.540225
10:19:42,30-Sep-21,0.748,0.734,0.559504,0.538756
10:19:42,30-Sep-21,0.738,0.733,0.544644,0.537289
10:19:42,30-Sep-21,0.738,0.732,0.544644,0.535824
10:19:42,30-Sep-21,0.7285,0.731,0.53071225,0.534361
10:19:42,30-Sep-21,0.7185,0.73,0.51624225,0.5329
10:19:42,30-Sep-21,0.7185,0.729,0.51624225,0.531441
10:19:42,30-Sep-21,0.7135,0.728,0.50908225,0.529984
10:19:42,30-Sep-21,0.7135,0.727,0.50908225,0.528529
10:19:42,30-Sep-21,0.7135,0.726,0.50908225,0.527076
10:19:42,30-Sep-21,0.7135,0.725,0.50908225,0.525625
10:19:42,30-Sep-21,0.7135,0.725,0.50908225,0.525625
10:19:42,30-Sep-21,0.7135,0.724,0.50908225,0.524176
10:19:42,30-Sep-21,0.7135,0.723,0.50908225,0.522729
10:19:42,30-Sep-21,0.7135,0.723,0.50908225,0.522729
10:19:42,30-Sep-21,0.7235,0.722,0.52345225,0.521284
10:19:42,30-Sep-21,0.733,0.722,0.537289,0.521284
10:19:42,30-Sep-21,0.733,0.721,0.537289,0.519841
10:19:42,30-Sep-21,0.733,0.721,0.537289,0.519841
10:19:42,30-Sep-21,0.733,0.72,0.537289,0.5184
10:19:42,30-Sep-21,0.733,0.72,0.537289,0.5184
10:19:42,30-Sep-21,0.733,0.72,0.537289,0.5184
10:19:42,30-Sep-21,0.733,0.719,0.537289,0.516961
10:19:42,30-Sep-21,0.733,0.719,0.537289,0.516961
10:19:42,30-Sep-21,0.7185,0.719,0.51624225,0.516961
10:19:42,30-Sep-21,0.7185,0.719,0.51624225,0.516961
10:19:42,30-Sep-21,0.7135,0.719,0.50908225,0.516961
10:19:42,30-Sep-21,0.7135,0.719,0.50908225,0.516961
10:19:42,30-Sep-21,0.7085,0.719,0.50197225,0.516961
10:19:42,30-Sep-21,0.7085,0.719,0.50197225,0.516961
10:19:42,30-Sep-21,0.7085,0.719,0.50197225,0.516961
10:19:42,30-Sep-21,0.704,0.719,0.495616,0.516961
10:19:42,30-Sep-21,0.704,0.719,0.495616,0.516961
10:19:42,30-Sep-21,0.704,0.719,0.495616,0.516961
10:19:42,30-Sep-21,0.7135,0.719,0.50908225,0.516961
10:19:42,30-Sep-21,0.7235,0.719,0.52345225,0.516961
10:19:42,30-Sep-21,0.7235,0.719,0.52345225,0.516961
10:19:42,30-Sep-21,0.733,0.72,0.537289,0.5184
10:19:42,30-Sep-21,0.733,0.72,0.537289,0.5184
10:19:42,30-Sep-21,0.733,0.72,0.537289,0.5184
10:19:42,30-Sep-21,0.733,0.721,0.537289,0.519841
10:19:42,30-Sep-21,0.7285,0.721,0.53071225,0.519841
10:19:42,30-Sep-21,0.7285,0.721,0.53071225,0.519841
10:19:42,30-Sep-21,0.7235,0.722,0.52345225,0.521284
10:19:42,30-Sep-21,0.7135,0.722,0.50908225,0.521284
10:19:42,30-Sep-21,0.7135,0.722,0.50908225,0.521284
10:19:42,30-Sep-21,0.7135,0.723,0.50908225,0.522729
10:19:42,30-Sep-21,0.7135,0.723,0.50908225,0.522729
10:19:42,30-Sep-21,0.7085,0.723,0.50197225,0.522729
10:19:42,30-Sep-21,0.7085,0.724,0.50197225,0.524176
10:19:42,30-Sep-21,0.7285,0.724,0.53071225,0.524176
10:19:42,30-Sep-21,0.7285,0.725,0.53071225,0.525625
10:19:42,30-Sep-21,0.7285,0.725,0.53071225,0.525625
10:19:42,30-Sep-21,0.733,0.725,0.537289,0.525625
10:19:42,30-Sep-21,0.733,0.726,0.537289,0.527076
10:19:42,30-Sep-21,0.733,0.726,0.537289,0.527076
10:19:42,30-Sep-21,0.738,0.727,0.544644,0.528529
10:19:42,30-Sep-21,0.738,0.727,0.544644,0.528529
10:19:42,30-Sep-21,0.738,0.727,0.544644,0.528529
10:19:42,30-Sep-21,0.738,0.728,0.544644,0.529984
10:19:42,30-Sep-21,0.738,0.728,0.544644,0.529984
10:19:42,30-Sep-21,0.7285,0.729,0.53071225,0.531441
10:19:42,30-Sep-21,0.7285,0.729,0.53071225,0.531441
10:19:42,30-Sep-21,0.7285,0.73,0.53071225,0.5329
10:19:42,30-Sep-21,0.7235,0.73,0.52345225,0.5329
10:19:42,30-Sep-21,0.7135,0.73,0.50908225,0.5329
10:19:42,30-Sep-21,0.7185,0.731,0.51624225,0.534361
10:19:42,30-Sep-21,0.7185,0.731,0.51624225,0.534361
10:19:42,30-Sep-21,0.7185,0.732,0.51624225,0.535824
10:19:42,30-Sep-21,0.7235,0.732,0.52345225,0.535824
10:19:42,30-Sep-21,0.7235,0.733,0.52345225,0.537289
10:19:42,30-Sep-21,0.7235,0.733,0.52345225,0.537289
10:19:42,30-Sep-21,0.743,0.734,0.552049,0.538756
10:19:42,30-Sep-21,0.743,0.735,0.552049,0.540225
10:19:42,30-Sep-21,0.743,0.735,0.552049,0.540225
10:19:42,30-Sep-21,0.748,0.736,0.559504,0.541696
10:19:42,30-Sep-21,0.748,0.736,0.559504,0.541696
10:19:42,30-Sep-21,0.748,0.737,0.559504,0.543169
10:19:42,30-Sep-21,0.748,0.737,0.559504,0.543169
10:19:42,30-Sep-21,0.748,0.738,0.559504,0.544644
10:19:42,30-Sep-21,0.733,0.738,0.537289,0.544644
10:19:42,30-Sep-21,0.733,0.739,0.537289,0.546121
10:19:42,30-Sep-21,0.7235,0.74,0.52345225,0.5476
10:19:42,30-Sep-21,0.7235,0.74,0.52345225,0.5476
10:19:42,30-Sep-21,0.7235,0.741,0.52345225,0.549081
10:19:42,30-Sep-21,0.733,0.741,0.537289,0.549081
10:19:42,30-Sep-21,0.733,0.742,0.537289,0.550564
10:19:42,30-Sep-21,0.733,0.742,0.537289,0.550564
10:19:42,30-Sep-21,0.7525,0.743,0.56625625,0.552049
10:19:42,30-Sep-21,0.7525,0.743,0.56625625,0.552049
10:19:43,30-Sep-21,0.7575,0.743,0.57380625,0.552049
10:19:43,30-Sep-21,0.7525,0.744,0.56625625,0.553536
10:19:43,30-Sep-21,0.7525,0.744,0.56625625,0.553536
10:19:43,30-Sep-21,0.7525,0.744,0.56625625,0.553536
10:19:43,30-Sep-21,0.7525,0.744,0.56625625,0.553536
10:19:43,30-Sep-21,0.748,0.745,0.559504,0.555025
10:19:43,30-Sep-21,0.738,0.745,0.544644,0.555025
10:19:43,30-Sep-21,0.738,0.745,0.544644,0.555025
10:19:43,30-Sep-21,0.733,0.745,0.537289,0.555025
10:19:43,30-Sep-21,0.733,0.744,0.537289,0.553536
10:19:43,30-Sep-21,0.7285,0.744,0.53071225,0.553536
10:19:43,30-Sep-21,0.7285,0.744,0.53071225,0.553536
10:19:43,30-Sep-21,0.743,0.744,0.552049,0.553536
10:19:43,30-Sep-21,0.743,0.743,0.552049,0.552049
10:19:43,30-Sep-21,0.748,0.743,0.559504,0.552049
10:19:43,30-Sep-21,0.7525,0.742,0.56625625,0.550564
10:19:43,30-Sep-21,0.7525,0.742,0.56625625,0.550564
10:19:43,30-Sep-21,0.7575,0.741,0.57380625,0.549081
10:19:43,30-Sep-21,0.7575,0.741,0.57380625,0.549081
10:19:43,30-Sep-21,0.7525,0.74,0.56625625,0.5476
10:19:43,30-Sep-21,0.748,0.739,0.559504,0.546121
10:19:43,30-Sep-21,0.743,0.738,0.552049,0.544644
10:19:43,30-Sep-21,0.743,0.737,0.552049,0.543169
10:19:43,30-Sep-21,0.7285,0.736,0.53071225,0.541696
10:19:43,30-Sep-21,0.7285,0.735,0.53071225,0.540225
10:19:43,30-Sep-21,0.7285,0.734,0.53071225,0.538756
10:19:43,30-Sep-21,0.7235,0.733,0.52345225,0.537289
10:19:43,30-Sep-21,0.7235,0.731,0.52345225,0.534361
10:19:43,30-Sep-21,0.7235,0.73,0.52345225,0.5329
10:19:43,30-Sep-21,0.7285,0.729,0.53071225,0.531441
10:19:43,30-Sep-21,0.7285,0.728,0.53071225,0.529984
10:19:43,30-Sep-21,0.738,0.726,0.544644,0.527076
10:19:43,30-Sep-21,0.738,0.725,0.544644,0.525625
10:19:43,30-Sep-21,0.738,0.724,0.544644,0.524176
10:19:43,30-Sep-21,0.738,0.723,0.544644,0.522729
10:19:43,30-Sep-21,0.7285,0.722,0.53071225,0.521284
10:19:43,30-Sep-21,0.7185,0.721,0.51624225,0.519841
10:19:43,30-Sep-21,0.7185,0.719,0.51624225,0.516961
10:19:43,30-Sep-21,0.7185,0.718,0.51624225,0.515524
10:19:43,30-Sep-21,0.7135,0.718,0.50908225,0.515524
10:19:43,30-Sep-21,0.704,0.717,0.495616,0.514089
10:19:43,30-Sep-21,0.699,0.716,0.488601,0.512656
10:19:43,30-Sep-21,0.699,0.715,0.488601,0.511225
10:19:43,30-Sep-21,0.699,0.714,0.488601,0.509796
10:19:43,30-Sep-21,0.699,0.714,0.488601,0.509796
10:19:43,30-Sep-21,0.699,0.713,0.488601,0.508369
10:19:43,30-Sep-21,0.699,0.713,0.488601,0.508369
10:19:43,30-Sep-21,0.699,0.713,0.488601,0.508369
10:19:43,30-Sep-21,0.7085,0.712,0.50197225,0.506944
10:19:43,30-Sep-21,0.7085,0.712,0.50197225,0.506944
10:19:43,30-Sep-21,0.7135,0.712,0.50908225,0.506944
10:19:43,30-Sep-21,0.7135,0.712,0.50908225,0.506944
10:19:43,30-Sep-21,0.7235,0.712,0.52345225,0.506944
10:19:43,30-Sep-21,0.7235,0.712,0.52345225,0.506944
10:19:43,30-Sep-21,0.7285,0.712,0.53071225,0.506944
10:19:43,30-Sep-21,0.7285,0.713,0.53071225,0.508369
10:19:43,30-Sep-21,0.7285,0.713,0.53071225,0.508369
10:19:43,30-Sep-21,0.7235,0.713,0.52345225,0.508369
10:19:43,30-Sep-21,0.7235,0.713,0.52345225,0.508369
