Time,Date,EMG Value (V),Filtered Value (V),,
10:20:52,30-Sep-21,0.992,0.989,0.984064,0.978121
10:20:52,30-Sep-21,0.992,0.99,0.984064,0.9801
10:20:52,30-Sep-21,1.002,0.99,1.004004,0.9801
10:20:52,30-Sep-21,1.0115,0.991,1.02313225,0.982081
10:20:52,30-Sep-21,1.0115,0.991,1.02313225,0.982081
10:20:52,30-Sep-21,1.0115,0.991,1.02313225,0.982081
10:20:52,30-Sep-21,1.0165,0.992,1.03327225,0.984064
10:20:52,30-Sep-21,1.0165,0.992,1.03327225,0.984064
10:20:52,30-Sep-21,1.0165,0.992,1.03327225,0.984064
10:20:52,30-Sep-21,1.007,0.993,1.014049,0.986049
10:20:52,30-Sep-21,1.007,0.993,1.014049,0.986049
10:20:52,30-Sep-21,0.997,0.993,0.994009,0.986049
10:20:52,30-Sep-21,0.997,0.994,0.994009,0.988036
10:20:52,30-Sep-21,0.9875,0.994,0.97515625,0.988036
10:20:52,30-Sep-21,0.9875,0.994,0.97515625,0.988036
10:20:52,30-Sep-21,0.9875,0.994,0.97515625,0.988036
10:20:52,30-Sep-21,0.9825,0.994,0.96530625,0.988036
10:20:52,30-Sep-21,0.9825,0.995,0.96530625,0.990025
10:20:52,30-Sep-21,0.9825,0.995,0.96530625,0.990025
10:20:52,30-Sep-21,0.9825,0.995,0.96530625,0.990025
10:20:52,30-Sep-21,0.9825,0.995,0.96530625,0.990025
10:20:52,30-Sep-21,0.9825,0.996,0.96530625,0.992016
10:20:52,30-Sep-21,0.9825,0.996,0.96530625,0.992016
10:20:52,30-Sep-21,0.9825,0.996,0.96530625,0.992016
10:20:52,30-Sep-21,0.9825,0.996,0.96530625,0.992016
10:20:52,30-Sep-21,0.9825,0.997,0.96530625,0.994009
10:20:52,30-Sep-21,0.9825,0.997,0.96530625,0.994009
10:20:52,30-Sep-21,0.9825,0.997,0.96530625,0.994009
10:20:52,30-Sep-21,0.9825,0.997,0.96530625,0.994009
10:20:52,30-Sep-21,0.9825,0.997,0.96530625,0.994009
10:20:52,30-Sep-21,0.9875,0.997,0.97515625,0.994009
10:20:52,30-Sep-21,0.9875,0.997,0.97515625,0.994009
10:20:52,30-Sep-21,0.9875,0.996,0.97515625,0.992016
10:20:52,30-Sep-21,1.007,0.996,1.014049,0.992016
10:20:52,30-Sep-21,1.007,0.995,1.014049,0.990025
10:20:52,30-Sep-21,1.007,0.994,1.014049,0.988036
10:20:52,30-Sep-21,1.007,0.993,1.014049,0.986049
10:20:52,30-Sep-21,1.007,0.992,1.014049,0.984064
10:20:52,30-Sep-21,1.007,0.991,1.014049,0.982081
10:20:52,30-Sep-21,1.007,0.989,1.014049,0.978121
10:20:52,30-Sep-21,1.002,0.987,1.004004,0.974169
10:20:52,30-Sep-21,1.002,0.985,1.004004,0.970225
10:20:52,30-Sep-21,0.997,0.982,0.994009,0.964324
10:20:52,30-Sep-21,0.997,0.979,0.994009,0.958441
10:20:52,30-Sep-21,0.997,0.976,0.994009,0.952576
10:20:52,30-Sep-21,0.9775,0.973,0.95550625,0.946729
10:20:52,30-Sep-21,0.9775,0.969,0.95550625,0.938961
10:20:52,30-Sep-21,0.9675,0.965,0.93605625,0.931225
10:20:52,30-Sep-21,0.9675,0.961,0.93605625,0.923521
10:20:52,30-Sep-21,0.948,0.957,0.898704,0.915849
10:20:52,30-Sep-21,0.948,0.952,0.898704,0.906304
10:20:52,30-Sep-21,0.948,0.948,0.898704,0.898704
10:20:52,30-Sep-21,0.948,0.943,0.898704,0.889249
10:20:52,30-Sep-21,0.9335,0.938,0.87142225,0.879844
10:20:52,30-Sep-21,0.9335,0.932,0.87142225,0.868624
10:20:52,30-Sep-21,0.914,0.927,0.835396,0.859329
10:20:52,30-Sep-21,0.914,0.922,0.835396,0.850084
10:20:52,30-Sep-21,0.904,0.916,0.817216,0.839056
10:20:52,30-Sep-21,0.904,0.91,0.817216,0.8281
10:20:52,30-Sep-21,0.904,0.905,0.817216,0.819025
10:20:52,30-Sep-21,0.904,0.899,0.817216,0.808201
10:20:52,30-Sep-21,0.8895,0.894,0.79121025,0.799236
10:20:52,30-Sep-21,0.8895,0.888,0.79121025,0.788544
10:20:52,30-Sep-21,0.8895,0.882,0.79121025,0.777924
10:20:52,30-Sep-21,0.8845,0.877,0.78234025,0.769129
10:20:52,30-Sep-21,0.87,0.871,0.7569,0.758641
10:20:53,30-Sep-21,0.87,0.866,0.7569,0.749956
10:20:53,30-Sep-21,0.8555,0.861,0.73188025,0.741321
10:20:53,30-Sep-21,0.8555,0.855,0.73188025,0.731025
10:20:53,30-Sep-21,0.8555,0.85,0.73188025,0.7225
10:20:53,30-Sep-21,0.8405,0.846,0.70644025,0.715716
10:20:53,30-Sep-21,0.8405,0.841,0.70644025,0.707281
10:20:53,30-Sep-21,0.8405,0.836,0.70644025,0.698896
10:20:53,30-Sep-21,0.8405,0.832,0.70644025,0.692224
10:20:53,30-Sep-21,0.816,0.828,0.665856,0.685584
10:20:53,30-Sep-21,0.8065,0.824,0.65044225,0.678976
10:20:53,30-Sep-21,0.7965,0.82,0.63441225,0.6724
10:20:53,30-Sep-21,0.7965,0.817,0.63441225,0.667489
10:20:53,30-Sep-21,0.792,0.813,0.627264,0.660969
10:20:53,30-Sep-21,0.792,0.81,0.627264,0.6561
10:20:53,30-Sep-21,0.792,0.807,0.627264,0.651249
10:20:53,30-Sep-21,0.792,0.804,0.627264,0.646416
10:20:53,30-Sep-21,0.787,0.802,0.619369,0.643204
10:20:53,30-Sep-21,0.787,0.799,0.619369,0.638401
10:20:53,30-Sep-21,0.8015,0.797,0.64240225,0.635209
10:20:53,30-Sep-21,0.8015,0.795,0.64240225,0.632025
10:20:53,30-Sep-21,0.8065,0.793,0.65044225,0.628849
10:20:53,30-Sep-21,0.8065,0.791,0.65044225,0.625681
10:20:53,30-Sep-21,0.8065,0.789,0.65044225,0.622521
10:20:53,30-Sep-21,0.8015,0.788,0.64240225,0.620944
10:20:53,30-Sep-21,0.8015,0.786,0.64240225,0.617796
10:20:53,30-Sep-21,0.7965,0.785,0.63441225,0.616225
10:20:53,30-Sep-21,0.7965,0.783,0.63441225,0.613089
10:20:53,30-Sep-21,0.7965,0.782,0.63441225,0.611524
10:20:53,30-Sep-21,0.7965,0.781,0.63441225,0.609961
10:20:53,30-Sep-21,0.782,0.779,0.611524,0.606841
10:20:53,30-Sep-21,0.782,0.778,0.611524,0.605284
10:20:53,30-Sep-21,0.777,0.777,0.603729,0.603729
10:20:53,30-Sep-21,0.777,0.776,0.603729,0.602176
10:20:53,30-Sep-21,0.772,0.774,0.595984,0.599076
10:20:53,30-Sep-21,0.772,0.773,0.595984,0.597529
10:20:53,30-Sep-21,0.772,0.772,0.595984,0.595984
10:20:53,30-Sep-21,0.772,0.771,0.595984,0.594441
10:20:53,30-Sep-21,0.772,0.77,0.595984,0.5929
10:20:53,30-Sep-21,0.7625,0.769,0.58140625,0.591361
10:20:53,30-Sep-21,0.7625,0.768,0.58140625,0.589824
10:20:53,30-Sep-21,0.7575,0.767,0.57380625,0.588289
10:20:53,30-Sep-21,0.7575,0.766,0.57380625,0.586756
10:20:53,30-Sep-21,0.7575,0.765,0.57380625,0.585225
10:20:53,30-Sep-21,0.7625,0.765,0.58140625,0.585225
10:20:53,30-Sep-21,0.7625,0.764,0.58140625,0.583696
10:20:53,30-Sep-21,0.772,0.763,0.595984,0.582169
10:20:53,30-Sep-21,0.772,0.762,0.595984,0.580644
10:20:53,30-Sep-21,0.772,0.762,0.595984,0.580644
10:20:53,30-Sep-21,0.772,0.761,0.595984,0.579121
10:20:53,30-Sep-21,0.772,0.761,0.595984,0.579121
10:20:53,30-Sep-21,0.7675,0.76,0.58905625,0.5776
10:20:53,30-Sep-21,0.7675,0.76,0.58905625,0.5776
10:20:53,30-Sep-21,0.7525,0.759,0.56625625,0.576081
10:20:53,30-Sep-21,0.7525,0.759,0.56625625,0.576081
10:20:53,30-Sep-21,0.7525,0.759,0.56625625,0.576081
10:20:53,30-Sep-21,0.7525,0.759,0.56625625,0.576081
10:20:53,30-Sep-21,0.7525,0.759,0.56625625,0.576081
10:20:53,30-Sep-21,0.748,0.759,0.559504,0.576081
10:20:53,30-Sep-21,0.748,0.759,0.559504,0.576081
10:20:53,30-Sep-21,0.743,0.759,0.552049,0.576081
10:20:53,30-Sep-21,0.743,0.759,0.552049,0.576081
10:20:53,30-Sep-21,0.743,0.759,0.552049,0.576081
10:20:53,30-Sep-21,0.743,0.76,0.552049,0.5776
10:20:53,30-Sep-21,0.7575,0.76,0.57380625,0.5776
10:20:53,30-Sep-21,0.7575,0.76,0.57380625,0.5776
10:20:53,30-Sep-21,0.7575,0.76,0.57380625,0.5776
10:20:53,30-Sep-21,0.7575,0.761,0.57380625,0.579121
10:20:53,30-Sep-21,0.7625,0.761,0.58140625,0.579121
10:20:53,30-Sep-21,0.7625,0.762,0.58140625,0.580644
10:20:53,30-Sep-21,0.772,0.762,0.595984,0.580644
10:20:53,30-Sep-21,0.772,0.762,0.595984,0.580644
10:20:53,30-Sep-21,0.772,0.762,0.595984,0.580644
10:20:53,30-Sep-21,0.772,0.762,0.595984,0.580644
10:20:53,30-Sep-21,0.772,0.763,0.595984,0.582169
10:20:53,30-Sep-21,0.772,0.763,0.595984,0.582169
10:20:53,30-Sep-21,0.772,0.763,0.595984,0.582169
10:20:53,30-Sep-21,0.772,0.763,0.595984,0.582169
10:20:53,30-Sep-21,0.772,0.762,0.595984,0.580644
10:20:53,30-Sep-21,0.772,0.762,0.595984,0.580644
10:20:53,30-Sep-21,0.772,0.762,0.595984,0.580644
10:20:53,30-Sep-21,0.7675,0.762,0.58905625,0.580644
10:20:53,30-Sep-21,0.7675,0.761,0.58905625,0.579121
10:20:53,30-Sep-21,0.7675,0.761,0.58905625,0.579121
10:20:53,30-Sep-21,0.7625,0.76,0.58140625,0.5776
10:20:53,30-Sep-21,0.7625,0.759,0.58140625,0.576081
10:20:53,30-Sep-21,0.7625,0.759,0.58140625,0.576081
10:20:53,30-Sep-21,0.7575,0.758,0.57380625,0.574564
10:20:53,30-Sep-21,0.7575,0.757,0.57380625,0.573049
10:20:53,30-Sep-21,0.7575,0.757,0.57380625,0.573049
10:20:53,30-Sep-21,0.748,0.756,0.559504,0.571536
10:20:53,30-Sep-21,0.748,0.755,0.559504,0.570025
10:20:53,30-Sep-21,0.748,0.755,0.559504,0.570025
10:20:53,30-Sep-21,0.743,0.754,0.552049,0.568516
10:20:53,30-Sep-21,0.743,0.753,0.552049,0.567009
10:20:53,30-Sep-21,0.743,0.753,0.552049,0.567009
10:20:53,30-Sep-21,0.743,0.752,0.552049,0.565504
10:20:53,30-Sep-21,0.743,0.751,0.552049,0.564001
10:20:53,30-Sep-21,0.738,0.751,0.544644,0.564001
10:20:53,30-Sep-21,0.738,0.75,0.544644,0.5625
10:20:53,30-Sep-21,0.738,0.75,0.544644,0.5625
10:20:53,30-Sep-21,0.738,0.75,0.544644,0.5625
10:20:53,30-Sep-21,0.738,0.749,0.544644,0.561001
10:20:53,30-Sep-21,0.7525,0.749,0.56625625,0.561001
10:20:53,30-Sep-21,0.7525,0.748,0.56625625,0.559504
10:20:53,30-Sep-21,0.7525,0.748,0.56625625,0.559504
10:20:53,30-Sep-21,0.7525,0.748,0.56625625,0.559504
10:20:53,30-Sep-21,0.7525,0.748,0.56625625,0.559504
10:20:53,30-Sep-21,0.7525,0.747,0.56625625,0.558009
10:20:53,30-Sep-21,0.7575,0.747,0.57380625,0.558009
10:20:53,30-Sep-21,0.7575,0.747,0.57380625,0.558009
10:20:53,30-Sep-21,0.7575,0.747,0.57380625,0.558009
10:20:53,30-Sep-21,0.7575,0.746,0.57380625,0.556516
10:20:53,30-Sep-21,0.7575,0.746,0.57380625,0.556516
10:20:53,30-Sep-21,0.7575,0.746,0.57380625,0.556516
10:20:53,30-Sep-21,0.7575,0.746,0.57380625,0.556516
10:20:53,30-Sep-21,0.7525,0.745,0.56625625,0.555025
10:20:53,30-Sep-21,0.7525,0.745,0.56625625,0.555025
10:20:53,30-Sep-21,0.743,0.745,0.552049,0.555025
10:20:53,30-Sep-21,0.743,0.745,0.552049,0.555025
10:20:53,30-Sep-21,0.743,0.744,0.552049,0.553536
10:20:53,30-Sep-21,0.743,0.744,0.552049,0.553536
10:20:53,30-Sep-21,0.743,0.744,0.552049,0.553536
10:20:53,30-Sep-21,0.743,0.744,0.552049,0.553536
10:20:53,30-Sep-21,0.743,0.744,0.552049,0.553536
10:20:53,30-Sep-21,0.743,0.744,0.552049,0.553536
10:20:53,30-Sep-21,0.733,0.744,0.537289,0.553536
10:20:53,30-Sep-21,0.733,0.744,0.537289,0.553536
10:20:53,30-Sep-21,0.733,0.744,0.537289,0.553536
10:20:53,30-Sep-21,0.733,0.744,0.537289,0.553536
10:20:53,30-Sep-21,0.733,0.744,0.537289,0.553536
10:20:53,30-Sep-21,0.733,0.744,0.537289,0.553536
10:20:53,30-Sep-21,0.733,0.744,0.537289,0.553536
10:20:53,30-Sep-21,0.733,0.744,0.537289,0.553536
10:20:53,30-Sep-21,0.733,0.745,0.537289,0.555025
10:20:53,30-Sep-21,0.733,0.745,0.537289,0.555025
10:20:53,30-Sep-21,0.733,0.745,0.537289,0.555025
10:20:53,30-Sep-21,0.738,0.745,0.544644,0.555025
10:20:53,30-Sep-21,0.738,0.745,0.544644,0.555025
10:20:53,30-Sep-21,0.7575,0.745,0.57380625,0.555025
10:20:53,30-Sep-21,0.7575,0.745,0.57380625,0.555025
10:20:53,30-Sep-21,0.7575,0.745,0.57380625,0.555025
10:20:53,30-Sep-21,0.7575,0.745,0.57380625,0.555025
10:20:53,30-Sep-21,0.7575,0.745,0.57380625,0.555025
10:20:53,30-Sep-21,0.7575,0.745,0.57380625,0.555025
10:20:53,30-Sep-21,0.7575,0.745,0.57380625,0.555025
10:20:53,30-Sep-21,0.7575,0.744,0.57380625,0.553536
10:20:54,30-Sep-21,0.7525,0.744,0.56625625,0.553536
10:20:54,30-Sep-21,0.7525,0.743,0.56625625,0.552049
10:20:54,30-Sep-21,0.7525,0.743,0.56625625,0.552049
10:20:54,30-Sep-21,0.7525,0.742,0.56625625,0.550564
10:20:54,30-Sep-21,0.7525,0.741,0.56625625,0.549081
10:20:54,30-Sep-21,0.7525,0.741,0.56625625,0.549081
10:20:54,30-Sep-21,0.7525,0.74,0.56625625,0.5476
10:20:54,30-Sep-21,0.7525,0.739,0.56625625,0.546121
10:20:54,30-Sep-21,0.733,0.738,0.537289,0.544644
10:20:54,30-Sep-21,0.733,0.737,0.537289,0.543169
10:20:54,30-Sep-21,0.733,0.736,0.537289,0.541696
10:20:54,30-Sep-21,0.7285,0.735,0.53071225,0.540225
10:20:54,30-Sep-21,0.7285,0.734,0.53071225,0.538756
10:20:54,30-Sep-21,0.7285,0.733,0.53071225,0.537289
10:20:54,30-Sep-21,0.7185,0.733,0.51624225,0.537289
10:20:54,30-Sep-21,0.7185,0.732,0.51624225,0.535824
10:20:54,30-Sep-21,0.7185,0.731,0.51624225,0.534361
10:20:54,30-Sep-21,0.7135,0.73,0.50908225,0.5329
10:20:54,30-Sep-21,0.7135,0.729,0.50908225,0.531441
10:20:54,30-Sep-21,0.7135,0.729,0.50908225,0.531441
10:20:54,30-Sep-21,0.7135,0.728,0.50908225,0.529984
10:20:54,30-Sep-21,0.7135,0.728,0.50908225,0.529984
10:20:54,30-Sep-21,0.7235,0.727,0.52345225,0.528529
10:20:54,30-Sep-21,0.7235,0.727,0.52345225,0.528529
10:20:54,30-Sep-21,0.7235,0.726,0.52345225,0.527076
10:20:54,30-Sep-21,0.7235,0.726,0.52345225,0.527076
10:20:54,30-Sep-21,0.7235,0.725,0.52345225,0.525625
10:20:54,30-Sep-21,0.7235,0.725,0.52345225,0.525625
10:20:54,30-Sep-21,0.7285,0.725,0.53071225,0.525625
10:20:54,30-Sep-21,0.7285,0.724,0.53071225,0.524176
10:20:54,30-Sep-21,0.7285,0.724,0.53071225,0.524176
10:20:54,30-Sep-21,0.733,0.724,0.537289,0.524176
10:20:54,30-Sep-21,0.733,0.723,0.537289,0.522729
10:20:54,30-Sep-21,0.733,0.723,0.537289,0.522729
10:20:54,30-Sep-21,0.733,0.722,0.537289,0.521284
10:20:54,30-Sep-21,0.733,0.722,0.537289,0.521284
10:20:54,30-Sep-21,0.733,0.721,0.537289,0.519841
10:20:54,30-Sep-21,0.733,0.721,0.537289,0.519841
10:20:54,30-Sep-21,0.7285,0.72,0.53071225,0.5184
10:20:54,30-Sep-21,0.7285,0.72,0.53071225,0.5184
10:20:54,30-Sep-21,0.7285,0.719,0.53071225,0.516961
10:20:54,30-Sep-21,0.7185,0.719,0.51624225,0.516961
10:20:54,30-Sep-21,0.7185,0.718,0.51624225,0.515524
10:20:54,30-Sep-21,0.7185,0.717,0.51624225,0.514089
10:20:54,30-Sep-21,0.7185,0.717,0.51624225,0.514089
10:20:54,30-Sep-21,0.7185,0.716,0.51624225,0.512656
10:20:54,30-Sep-21,0.7185,0.715,0.51624225,0.511225
10:20:54,30-Sep-21,0.7185,0.715,0.51624225,0.511225
10:20:54,30-Sep-21,0.7085,0.714,0.50197225,0.509796
10:20:54,30-Sep-21,0.7085,0.713,0.50197225,0.508369
10:20:54,30-Sep-21,0.7085,0.713,0.50197225,0.508369
10:20:54,30-Sep-21,0.7085,0.712,0.50197225,0.506944
10:20:54,30-Sep-21,0.704,0.712,0.495616,0.506944
10:20:54,30-Sep-21,0.704,0.711,0.495616,0.505521
10:20:54,30-Sep-21,0.704,0.711,0.495616,0.505521
10:20:54,30-Sep-21,0.704,0.71,0.495616,0.5041
10:20:54,30-Sep-21,0.704,0.71,0.495616,0.5041
10:20:54,30-Sep-21,0.699,0.71,0.488601,0.5041
10:20:54,30-Sep-21,0.699,0.709,0.488601,0.502681
10:20:54,30-Sep-21,0.699,0.709,0.488601,0.502681
10:20:54,30-Sep-21,0.699,0.709,0.488601,0.502681
10:20:54,30-Sep-21,0.699,0.709,0.488601,0.502681
10:20:54,30-Sep-21,0.699,0.709,0.488601,0.502681
10:20:54,30-Sep-21,0.704,0.709,0.495616,0.502681
10:20:54,30-Sep-21,0.704,0.709,0.495616,0.502681
10:20:54,30-Sep-21,0.704,0.709,0.495616,0.502681
10:20:54,30-Sep-21,0.704,0.709,0.495616,0.502681
10:20:54,30-Sep-21,0.704,0.709,0.495616,0.502681
10:20:54,30-Sep-21,0.7185,0.709,0.51624225,0.502681
10:20:54,30-Sep-21,0.7185,0.709,0.51624225,0.502681
10:20:54,30-Sep-21,0.7185,0.709,0.51624225,0.502681
10:20:54,30-Sep-21,0.7235,0.709,0.52345225,0.502681
10:20:54,30-Sep-21,0.7235,0.709,0.52345225,0.502681
10:20:54,30-Sep-21,0.7235,0.709,0.52345225,0.502681
10:20:54,30-Sep-21,0.7235,0.709,0.52345225,0.502681
10:20:54,30-Sep-21,0.7235,0.709,0.52345225,0.502681
10:20:54,30-Sep-21,0.7185,0.709,0.51624225,0.502681
10:20:54,30-Sep-21,0.7185,0.708,0.51624225,0.501264
10:20:54,30-Sep-21,0.7185,0.708,0.51624225,0.501264
10:20:54,30-Sep-21,0.7185,0.708,0.51624225,0.501264
10:20:54,30-Sep-21,0.7085,0.708,0.50197225,0.501264
10:20:54,30-Sep-21,0.7085,0.707,0.50197225,0.499849
10:20:54,30-Sep-21,0.7085,0.707,0.50197225,0.499849
10:20:54,30-Sep-21,0.7085,0.707,0.50197225,0.499849
10:20:54,30-Sep-21,0.7085,0.707,0.50197225,0.499849
10:20:54,30-Sep-21,0.704,0.706,0.495616,0.498436
10:20:54,30-Sep-21,0.704,0.706,0.495616,0.498436
10:20:54,30-Sep-21,0.699,0.706,0.488601,0.498436
10:20:54,30-Sep-21,0.699,0.706,0.488601,0.498436
10:20:54,30-Sep-21,0.699,0.706,0.488601,0.498436
10:20:54,30-Sep-21,0.694,0.706,0.481636,0.498436
10:20:54,30-Sep-21,0.694,0.706,0.481636,0.498436
10:20:54,30-Sep-21,0.694,0.706,0.481636,0.498436
10:20:54,30-Sep-21,0.694,0.706,0.481636,0.498436
10:20:54,30-Sep-21,0.694,0.706,0.481636,0.498436
10:20:54,30-Sep-21,0.694,0.706,0.481636,0.498436
10:20:54,30-Sep-21,0.694,0.707,0.481636,0.499849
10:20:54,30-Sep-21,0.694,0.707,0.481636,0.499849
10:20:54,30-Sep-21,0.704,0.708,0.495616,0.501264
10:20:54,30-Sep-21,0.704,0.708,0.495616,0.501264
10:20:54,30-Sep-21,0.704,0.709,0.495616,0.502681
10:20:54,30-Sep-21,0.7085,0.709,0.50197225,0.502681
10:20:54,30-Sep-21,0.7085,0.71,0.50197225,0.5041
10:20:54,30-Sep-21,0.7085,0.71,0.50197225,0.5041
10:20:54,30-Sep-21,0.7235,0.711,0.52345225,0.505521
10:20:54,30-Sep-21,0.7235,0.712,0.52345225,0.506944
10:20:54,30-Sep-21,0.7235,0.712,0.52345225,0.506944
10:20:54,30-Sep-21,0.7235,0.713,0.52345225,0.508369
10:20:54,30-Sep-21,0.7235,0.713,0.52345225,0.508369
10:20:54,30-Sep-21,0.7235,0.714,0.52345225,0.509796
10:20:54,30-Sep-21,0.7235,0.714,0.52345225,0.509796
10:20:54,30-Sep-21,0.7235,0.715,0.52345225,0.511225
10:20:54,30-Sep-21,0.7235,0.715,0.52345225,0.511225
10:20:54,30-Sep-21,0.7235,0.716,0.52345225,0.512656
10:20:54,30-Sep-21,0.7235,0.716,0.52345225,0.512656
10:20:54,30-Sep-21,0.7235,0.716,0.52345225,0.512656
10:20:54,30-Sep-21,0.7235,0.717,0.52345225,0.514089
10:20:54,30-Sep-21,0.7135,0.717,0.50908225,0.514089
10:20:54,30-Sep-21,0.7135,0.717,0.50908225,0.514089
10:20:54,30-Sep-21,0.7135,0.717,0.50908225,0.514089
10:20:54,30-Sep-21,0.7135,0.717,0.50908225,0.514089
10:20:54,30-Sep-21,0.7135,0.718,0.50908225,0.515524
10:20:54,30-Sep-21,0.7135,0.718,0.50908225,0.515524
10:20:54,30-Sep-21,0.7135,0.718,0.50908225,0.515524
10:20:54,30-Sep-21,0.7135,0.718,0.50908225,0.515524
10:20:54,30-Sep-21,0.7085,0.718,0.50197225,0.515524
10:20:54,30-Sep-21,0.7085,0.718,0.50197225,0.515524
10:20:54,30-Sep-21,0.7085,0.718,0.50197225,0.515524
10:20:54,30-Sep-21,0.704,0.718,0.495616,0.515524
10:20:54,30-Sep-21,0.704,0.718,0.495616,0.515524
10:20:54,30-Sep-21,0.704,0.718,0.495616,0.515524
10:20:54,30-Sep-21,0.7235,0.718,0.52345225,0.515524
10:20:54,30-Sep-21,0.7235,0.717,0.52345225,0.514089
10:20:54,30-Sep-21,0.7235,0.717,0.52345225,0.514089
10:20:54,30-Sep-21,0.7235,0.717,0.52345225,0.514089
10:20:54,30-Sep-21,0.7235,0.717,0.52345225,0.514089
10:20:54,30-Sep-21,0.7285,0.717,0.53071225,0.514089
10:20:54,30-Sep-21,0.7285,0.717,0.53071225,0.514089
10:20:54,30-Sep-21,0.7285,0.717,0.53071225,0.514089
10:20:54,30-Sep-21,0.7285,0.716,0.53071225,0.512656
10:20:54,30-Sep-21,0.7235,0.716,0.52345225,0.512656
10:20:54,30-Sep-21,0.7235,0.716,0.52345225,0.512656
10:20:54,30-Sep-21,0.7135,0.716,0.50908225,0.512656
10:20:54,30-Sep-21,0.7135,0.715,0.50908225,0.511225
10:20:54,30-Sep-21,0.7135,0.715,0.50908225,0.511225
10:20:54,30-Sep-21,0.7085,0.715,0.50197225,0.511225
10:20:54,30-Sep-21,0.7085,0.715,0.50197225,0.511225
10:20:54,30-Sep-21,0.7085,0.714,0.50197225,0.509796
10:20:54,30-Sep-21,0.699,0.714,0.488601,0.509796
10:20:54,30-Sep-21,0.699,0.714,0.488601,0.509796
10:20:54,30-Sep-21,0.699,0.714,0.488601,0.509796
10:20:54,30-Sep-21,0.699,0.713,0.488601,0.508369
10:20:54,30-Sep-21,0.699,0.713,0.488601,0.508369
10:20:54,30-Sep-21,0.704,0.713,0.495616,0.508369
10:20:54,30-Sep-21,0.7235,0.713,0.52345225,0.508369
10:20:54,30-Sep-21,0.7235,0.713,0.52345225,0.508369
10:20:54,30-Sep-21,0.7235,0.712,0.52345225,0.506944
10:20:54,30-Sep-21,0.7235,0.712,0.52345225,0.506944
10:20:54,30-Sep-21,0.7235,0.712,0.52345225,0.506944
10:20:54,30-Sep-21,0.7235,0.712,0.52345225,0.506944
10:20:54,30-Sep-21,0.7235,0.712,0.52345225,0.506944
10:20:55,30-Sep-21,0.7235,0.712,0.52345225,0.506944
10:20:55,30-Sep-21,0.7235,0.711,0.52345225,0.505521
10:20:55,30-Sep-21,0.7185,0.711,0.51624225,0.505521
10:20:55,30-Sep-21,0.7185,0.711,0.51624225,0.505521
10:20:55,30-Sep-21,0.7185,0.711,0.51624225,0.505521
10:20:55,30-Sep-21,0.7085,0.711,0.50197225,0.505521
10:20:55,30-Sep-21,0.7085,0.711,0.50197225,0.505521
10:20:55,30-Sep-21,0.704,0.711,0.495616,0.505521
10:20:55,30-Sep-21,0.704,0.711,0.495616,0.505521
10:20:55,30-Sep-21,0.699,0.712,0.488601,0.506944
10:20:55,30-Sep-21,0.699,0.712,0.488601,0.506944
10:20:55,30-Sep-21,0.699,0.712,0.488601,0.506944
10:20:55,30-Sep-21,0.699,0.713,0.488601,0.508369
10:20:55,30-Sep-21,0.699,0.713,0.488601,0.508369
10:20:55,30-Sep-21,0.704,0.713,0.495616,0.508369
10:20:55,30-Sep-21,0.704,0.714,0.495616,0.509796
10:20:55,30-Sep-21,0.7085,0.715,0.50197225,0.511225
10:20:55,30-Sep-21,0.7085,0.715,0.50197225,0.511225
10:20:55,30-Sep-21,0.7285,0.716,0.53071225,0.512656
10:20:55,30-Sep-21,0.7285,0.717,0.53071225,0.514089
10:20:55,30-Sep-21,0.7285,0.717,0.53071225,0.514089
10:20:55,30-Sep-21,0.7285,0.718,0.53071225,0.515524
10:20:55,30-Sep-21,0.7285,0.719,0.53071225,0.516961
10:20:55,30-Sep-21,0.7285,0.72,0.53071225,0.5184
10:20:55,30-Sep-21,0.7285,0.721,0.53071225,0.519841
10:20:55,30-Sep-21,0.7285,0.722,0.53071225,0.521284
10:20:55,30-Sep-21,0.7285,0.723,0.53071225,0.522729
10:20:55,30-Sep-21,0.7285,0.724,0.53071225,0.524176
10:20:55,30-Sep-21,0.7285,0.724,0.53071225,0.524176
10:20:55,30-Sep-21,0.7185,0.725,0.51624225,0.525625
10:20:55,30-Sep-21,0.7185,0.726,0.51624225,0.527076
10:20:55,30-Sep-21,0.7185,0.727,0.51624225,0.528529
10:20:55,30-Sep-21,0.7185,0.728,0.51624225,0.529984
10:20:55,30-Sep-21,0.7185,0.729,0.51624225,0.531441
10:20:55,30-Sep-21,0.7185,0.73,0.51624225,0.5329
10:20:55,30-Sep-21,0.7185,0.731,0.51624225,0.534361
10:20:55,30-Sep-21,0.7185,0.732,0.51624225,0.535824
10:20:55,30-Sep-21,0.7185,0.733,0.51624225,0.537289
10:20:55,30-Sep-21,0.738,0.734,0.544644,0.538756
10:20:55,30-Sep-21,0.738,0.735,0.544644,0.540225
10:20:55,30-Sep-21,0.738,0.735,0.544644,0.540225
10:20:55,30-Sep-21,0.743,0.736,0.552049,0.541696
10:20:55,30-Sep-21,0.743,0.737,0.552049,0.543169
10:20:55,30-Sep-21,0.743,0.737,0.552049,0.543169
10:20:55,30-Sep-21,0.748,0.738,0.559504,0.544644
10:20:55,30-Sep-21,0.748,0.738,0.559504,0.544644
10:20:55,30-Sep-21,0.7525,0.739,0.56625625,0.546121
10:20:55,30-Sep-21,0.7525,0.739,0.56625625,0.546121
10:20:55,30-Sep-21,0.7525,0.739,0.56625625,0.546121
10:20:55,30-Sep-21,0.7525,0.739,0.56625625,0.546121
10:20:55,30-Sep-21,0.7525,0.739,0.56625625,0.546121
10:20:55,30-Sep-21,0.743,0.739,0.552049,0.546121
10:20:55,30-Sep-21,0.743,0.739,0.552049,0.546121
10:20:55,30-Sep-21,0.738,0.739,0.544644,0.546121
10:20:55,30-Sep-21,0.738,0.739,0.544644,0.546121
10:20:55,30-Sep-21,0.7285,0.739,0.53071225,0.546121
10:20:55,30-Sep-21,0.7285,0.738,0.53071225,0.544644
10:20:55,30-Sep-21,0.7235,0.738,0.52345225,0.544644
10:20:55,30-Sep-21,0.7235,0.737,0.52345225,0.543169
10:20:55,30-Sep-21,0.7235,0.737,0.52345225,0.543169
10:20:55,30-Sep-21,0.7235,0.736,0.52345225,0.541696
10:20:55,30-Sep-21,0.7235,0.736,0.52345225,0.541696
10:20:55,30-Sep-21,0.7235,0.735,0.52345225,0.540225
10:20:55,30-Sep-21,0.7235,0.735,0.52345225,0.540225
10:20:55,30-Sep-21,0.7285,0.734,0.53071225,0.538756
10:20:55,30-Sep-21,0.7285,0.733,0.53071225,0.537289
10:20:55,30-Sep-21,0.743,0.733,0.552049,0.537289
10:20:55,30-Sep-21,0.743,0.732,0.552049,0.535824
10:20:55,30-Sep-21,0.743,0.731,0.552049,0.534361
10:20:55,30-Sep-21,0.743,0.73,0.552049,0.5329
10:20:55,30-Sep-21,0.743,0.73,0.552049,0.5329
10:20:55,30-Sep-21,0.743,0.729,0.552049,0.531441
10:20:55,30-Sep-21,0.743,0.728,0.552049,0.529984
10:20:55,30-Sep-21,0.743,0.727,0.552049,0.528529
10:20:55,30-Sep-21,0.733,0.727,0.537289,0.528529
10:20:55,30-Sep-21,0.7285,0.726,0.53071225,0.527076
10:20:55,30-Sep-21,0.7285,0.725,0.53071225,0.525625
10:20:55,30-Sep-21,0.7185,0.724,0.51624225,0.524176
10:20:55,30-Sep-21,0.7185,0.723,0.51624225,0.522729
10:20:55,30-Sep-21,0.7185,0.723,0.51624225,0.522729
10:20:55,30-Sep-21,0.7135,0.722,0.50908225,0.521284
10:20:55,30-Sep-21,0.7135,0.721,0.50908225,0.519841
10:20:55,30-Sep-21,0.7135,0.721,0.50908225,0.519841
10:20:55,30-Sep-21,0.7085,0.72,0.50197225,0.5184
10:20:55,30-Sep-21,0.7085,0.72,0.50197225,0.5184
10:20:55,30-Sep-21,0.704,0.72,0.495616,0.5184
10:20:55,30-Sep-21,0.704,0.719,0.495616,0.516961
10:20:55,30-Sep-21,0.7135,0.719,0.50908225,0.516961
10:20:55,30-Sep-21,0.7135,0.719,0.50908225,0.516961
10:20:55,30-Sep-21,0.7235,0.719,0.52345225,0.516961
10:20:55,30-Sep-21,0.7235,0.718,0.52345225,0.515524
10:20:55,30-Sep-21,0.733,0.718,0.537289,0.515524
10:20:55,30-Sep-21,0.733,0.719,0.537289,0.516961
10:20:55,30-Sep-21,0.733,0.719,0.537289,0.516961
10:20:55,30-Sep-21,0.733,0.719,0.537289,0.516961
10:20:55,30-Sep-21,0.733,0.719,0.537289,0.516961
10:20:55,30-Sep-21,0.7285,0.72,0.53071225,0.5184
10:20:55,30-Sep-21,0.7285,0.72,0.53071225,0.5184
10:20:55,30-Sep-21,0.7235,0.72,0.52345225,0.5184
10:20:55,30-Sep-21,0.7235,0.721,0.52345225,0.519841
10:20:55,30-Sep-21,0.7135,0.722,0.50908225,0.521284
10:20:55,30-Sep-21,0.7135,0.722,0.50908225,0.521284
10:20:55,30-Sep-21,0.7135,0.723,0.50908225,0.522729
10:20:55,30-Sep-21,0.7135,0.724,0.50908225,0.524176
10:20:55,30-Sep-21,0.7135,0.725,0.50908225,0.525625
10:20:55,30-Sep-21,0.7135,0.726,0.50908225,0.527076
10:20:55,30-Sep-21,0.7135,0.727,0.50908225,0.528529
10:20:55,30-Sep-21,0.7135,0.728,0.50908225,0.529984
10:20:55,30-Sep-21,0.7135,0.729,0.50908225,0.531441
10:20:55,30-Sep-21,0.7185,0.73,0.51624225,0.5329
10:20:55,30-Sep-21,0.7185,0.731,0.51624225,0.534361
10:20:55,30-Sep-21,0.7185,0.732,0.51624225,0.535824
10:20:55,30-Sep-21,0.738,0.733,0.544644,0.537289
10:20:55,30-Sep-21,0.738,0.734,0.544644,0.538756
10:20:55,30-Sep-21,0.738,0.736,0.544644,0.541696
10:20:55,30-Sep-21,0.738,0.737,0.544644,0.543169
10:20:55,30-Sep-21,0.738,0.738,0.544644,0.544644
10:20:55,30-Sep-21,0.748,0.738,0.559504,0.544644
10:20:55,30-Sep-21,0.748,0.739,0.559504,0.546121
10:20:55,30-Sep-21,0.748,0.74,0.559504,0.5476
10:20:55,30-Sep-21,0.7525,0.741,0.56625625,0.549081
10:20:55,30-Sep-21,0.7525,0.741,0.56625625,0.549081
10:20:55,30-Sep-21,0.7525,0.742,0.56625625,0.550564
10:20:55,30-Sep-21,0.7575,0.742,0.57380625,0.550564
10:20:55,30-Sep-21,0.7575,0.742,0.57380625,0.550564
10:20:55,30-Sep-21,0.7575,0.742,0.57380625,0.550564
10:20:56,30-Sep-21,0.7575,0.742,0.57380625,0.550564
10:20:56,30-Sep-21,0.7575,0.742,0.57380625,0.550564
10:20:56,30-Sep-21,0.748,0.742,0.559504,0.550564
10:20:56,30-Sep-21,0.748,0.742,0.559504,0.550564
10:20:56,30-Sep-21,0.743,0.742,0.552049,0.550564
10:20:56,30-Sep-21,0.743,0.741,0.552049,0.549081
10:20:56,30-Sep-21,0.743,0.741,0.552049,0.549081
10:20:56,30-Sep-21,0.733,0.74,0.537289,0.5476
10:20:56,30-Sep-21,0.733,0.74,0.537289,0.5476
10:20:56,30-Sep-21,0.733,0.739,0.537289,0.546121
10:20:56,30-Sep-21,0.7285,0.739,0.53071225,0.546121
10:20:56,30-Sep-21,0.7285,0.738,0.53071225,0.544644
10:20:56,30-Sep-21,0.7285,0.737,0.53071225,0.543169
10:20:56,30-Sep-21,0.7285,0.737,0.53071225,0.543169
10:20:56,30-Sep-21,0.7285,0.736,0.53071225,0.541696
10:20:56,30-Sep-21,0.7285,0.736,0.53071225,0.541696
10:20:56,30-Sep-21,0.7285,0.735,0.53071225,0.540225
10:20:56,30-Sep-21,0.7285,0.735,0.53071225,0.540225
10:20:56,30-Sep-21,0.7285,0.735,0.53071225,0.540225
10:20:56,30-Sep-21,0.7285,0.734,0.53071225,0.538756
10:20:56,30-Sep-21,0.7285,0.734,0.53071225,0.538756
10:20:56,30-Sep-21,0.7285,0.734,0.53071225,0.538756
10:20:56,30-Sep-21,0.7285,0.734,0.53071225,0.538756
10:20:56,30-Sep-21,0.7285,0.734,0.53071225,0.538756
10:20:56,30-Sep-21,0.738,0.734,0.544644,0.538756
10:20:56,30-Sep-21,0.738,0.734,0.544644,0.538756
10:20:56,30-Sep-21,0.738,0.734,0.544644,0.538756
10:20:56,30-Sep-21,0.738,0.734,0.544644,0.538756
10:20:56,30-Sep-21,0.738,0.735,0.544644,0.540225
10:20:56,30-Sep-21,0.738,0.735,0.544644,0.540225
10:20:56,30-Sep-21,0.738,0.735,0.544644,0.540225
10:20:56,30-Sep-21,0.738,0.736,0.544644,0.541696
10:20:56,30-Sep-21,0.738,0.736,0.544644,0.541696
10:20:56,30-Sep-21,0.738,0.737,0.544644,0.543169
10:20:56,30-Sep-21,0.738,0.737,0.544644,0.543169
10:20:56,30-Sep-21,0.738,0.737,0.544644,0.543169
10:20:56,30-Sep-21,0.743,0.738,0.552049,0.544644
10:20:56,30-Sep-21,0.743,0.739,0.552049,0.546121
10:20:56,30-Sep-21,0.743,0.739,0.552049,0.546121
10:20:56,30-Sep-21,0.743,0.74,0.552049,0.5476
10:20:56,30-Sep-21,0.743,0.74,0.552049,0.5476
10:20:56,30-Sep-21,0.743,0.741,0.552049,0.549081
10:20:56,30-Sep-21,0.743,0.741,0.552049,0.549081
10:20:56,30-Sep-21,0.743,0.742,0.552049,0.550564
10:20:56,30-Sep-21,0.743,0.742,0.552049,0.550564
10:20:56,30-Sep-21,0.743,0.743,0.552049,0.552049
10:20:56,30-Sep-21,0.743,0.744,0.552049,0.553536
10:20:56,30-Sep-21,0.743,0.744,0.552049,0.553536
10:20:56,30-Sep-21,0.743,0.745,0.552049,0.555025
10:20:56,30-Sep-21,0.733,0.745,0.537289,0.555025
10:20:56,30-Sep-21,0.733,0.746,0.537289,0.556516
10:20:56,30-Sep-21,0.738,0.746,0.544644,0.556516
10:20:56,30-Sep-21,0.738,0.747,0.544644,0.558009
10:20:56,30-Sep-21,0.738,0.747,0.544644,0.558009
10:20:56,30-Sep-21,0.748,0.747,0.559504,0.558009
10:20:56,30-Sep-21,0.748,0.748,0.559504,0.559504
10:20:56,30-Sep-21,0.748,0.748,0.559504,0.559504
10:20:56,30-Sep-21,0.748,0.748,0.559504,0.559504
10:20:56,30-Sep-21,0.748,0.749,0.559504,0.561001
10:20:56,30-Sep-21,0.7525,0.749,0.56625625,0.561001
10:20:56,30-Sep-21,0.7525,0.749,0.56625625,0.561001
10:20:56,30-Sep-21,0.7525,0.749,0.56625625,0.561001
10:20:56,30-Sep-21,0.7575,0.749,0.57380625,0.561001
10:20:56,30-Sep-21,0.7575,0.749,0.57380625,0.561001
10:20:56,30-Sep-21,0.7575,0.749,0.57380625,0.561001
10:20:56,30-Sep-21,0.7575,0.748,0.57380625,0.559504
10:20:56,30-Sep-21,0.7575,0.748,0.57380625,0.559504
10:20:56,30-Sep-21,0.7575,0.748,0.57380625,0.559504
10:20:56,30-Sep-21,0.7525,0.747,0.56625625,0.558009
10:20:56,30-Sep-21,0.7525,0.747,0.56625625,0.558009
10:20:56,30-Sep-21,0.7525,0.746,0.56625625,0.556516
10:20:56,30-Sep-21,0.748,0.746,0.559504,0.556516
10:20:56,30-Sep-21,0.748,0.745,0.559504,0.555025
10:20:56,30-Sep-21,0.748,0.745,0.559504,0.555025
10:20:56,30-Sep-21,0.748,0.744,0.559504,0.553536
10:20:56,30-Sep-21,0.748,0.744,0.559504,0.553536
10:20:56,30-Sep-21,0.748,0.743,0.559504,0.552049
10:20:56,30-Sep-21,0.748,0.743,0.559504,0.552049
10:20:56,30-Sep-21,0.733,0.742,0.537289,0.550564
10:20:56,30-Sep-21,0.733,0.742,0.537289,0.550564
10:20:56,30-Sep-21,0.7285,0.742,0.53071225,0.550564
10:20:56,30-Sep-21,0.7285,0.741,0.53071225,0.549081
10:20:56,30-Sep-21,0.7285,0.741,0.53071225,0.549081
10:20:56,30-Sep-21,0.7235,0.741,0.52345225,0.549081
10:20:56,30-Sep-21,0.7235,0.741,0.52345225,0.549081
10:20:56,30-Sep-21,0.7235,0.74,0.52345225,0.5476
10:20:56,30-Sep-21,0.7235,0.74,0.52345225,0.5476
10:20:56,30-Sep-21,0.7235,0.74,0.52345225,0.5476
10:20:56,30-Sep-21,0.7235,0.74,0.52345225,0.5476
10:20:56,30-Sep-21,0.738,0.74,0.544644,0.5476
10:20:56,30-Sep-21,0.738,0.74,0.544644,0.5476
10:20:56,30-Sep-21,0.748,0.74,0.559504,0.5476
10:20:56,30-Sep-21,0.748,0.741,0.559504,0.549081
10:20:56,30-Sep-21,0.7575,0.741,0.57380625,0.549081
10:20:56,30-Sep-21,0.7575,0.741,0.57380625,0.549081
10:20:56,30-Sep-21,0.7575,0.741,0.57380625,0.549081
10:20:56,30-Sep-21,0.7575,0.741,0.57380625,0.549081
10:20:56,30-Sep-21,0.7575,0.741,0.57380625,0.549081
10:20:56,30-Sep-21,0.7575,0.741,0.57380625,0.549081
10:20:56,30-Sep-21,0.7525,0.741,0.56625625,0.549081
10:20:56,30-Sep-21,0.7525,0.742,0.56625625,0.550564
10:20:56,30-Sep-21,0.7525,0.742,0.56625625,0.550564
10:20:56,30-Sep-21,0.743,0.742,0.552049,0.550564
10:20:56,30-Sep-21,0.738,0.742,0.544644,0.550564
10:20:56,30-Sep-21,0.738,0.742,0.544644,0.550564
10:20:56,30-Sep-21,0.738,0.742,0.544644,0.550564
10:20:56,30-Sep-21,0.738,0.742,0.544644,0.550564
10:20:56,30-Sep-21,0.738,0.742,0.544644,0.550564
10:20:56,30-Sep-21,0.7285,0.742,0.53071225,0.550564
10:20:56,30-Sep-21,0.7285,0.742,0.53071225,0.550564
10:20:56,30-Sep-21,0.7235,0.742,0.52345225,0.550564
10:20:56,30-Sep-21,0.7285,0.742,0.53071225,0.550564
10:20:56,30-Sep-21,0.7285,0.742,0.53071225,0.550564
10:20:56,30-Sep-21,0.733,0.742,0.537289,0.550564
10:20:56,30-Sep-21,0.733,0.741,0.537289,0.549081
10:20:56,30-Sep-21,0.733,0.741,0.537289,0.549081
10:20:56,30-Sep-21,0.748,0.741,0.559504,0.549081
10:20:56,30-Sep-21,0.748,0.741,0.559504,0.549081
10:20:56,30-Sep-21,0.748,0.741,0.559504,0.549081
10:20:56,30-Sep-21,0.7525,0.741,0.56625625,0.549081
10:20:56,30-Sep-21,0.7525,0.741,0.56625625,0.549081
10:20:56,30-Sep-21,0.7525,0.741,0.56625625,0.549081
10:20:56,30-Sep-21,0.7525,0.741,0.56625625,0.549081
10:20:56,30-Sep-21,0.7525,0.741,0.56625625,0.549081
10:20:56,30-Sep-21,0.7525,0.741,0.56625625,0.549081
10:20:56,30-Sep-21,0.7525,0.741,0.56625625,0.549081
10:20:56,30-Sep-21,0.748,0.741,0.559504,0.549081
10:20:56,30-Sep-21,0.748,0.741,0.559504,0.549081
10:20:56,30-Sep-21,0.748,0.741,0.559504,0.549081
10:20:56,30-Sep-21,0.748,0.741,0.559504,0.549081
10:20:56,30-Sep-21,0.738,0.741,0.544644,0.549081
10:20:56,30-Sep-21,0.738,0.741,0.544644,0.549081
10:20:56,30-Sep-21,0.733,0.741,0.537289,0.549081
10:20:56,30-Sep-21,0.733,0.741,0.537289,0.549081
10:20:56,30-Sep-21,0.7235,0.741,0.52345225,0.549081
10:20:56,30-Sep-21,0.7235,0.741,0.52345225,0.549081
10:20:56,30-Sep-21,0.7235,0.742,0.52345225,0.550564
10:20:56,30-Sep-21,0.7235,0.742,0.52345225,0.550564
10:20:56,30-Sep-21,0.733,0.742,0.537289,0.550564
10:20:56,30-Sep-21,0.733,0.743,0.537289,0.552049
10:20:56,30-Sep-21,0.733,0.743,0.537289,0.552049
10:20:56,30-Sep-21,0.733,0.744,0.537289,0.553536
10:20:56,30-Sep-21,0.738,0.744,0.544644,0.553536
10:20:56,30-Sep-21,0.738,0.745,0.544644,0.555025
10:20:56,30-Sep-21,0.748,0.745,0.559504,0.555025
10:20:56,30-Sep-21,0.748,0.746,0.559504,0.556516
10:20:56,30-Sep-21,0.748,0.747,0.559504,0.558009
10:20:56,30-Sep-21,0.748,0.747,0.559504,0.558009
10:20:56,30-Sep-21,0.7625,0.748,0.58140625,0.559504
10:20:56,30-Sep-21,0.7625,0.749,0.58140625,0.561001
10:20:56,30-Sep-21,0.7625,0.749,0.58140625,0.561001
10:20:56,30-Sep-21,0.7625,0.75,0.58140625,0.5625
10:20:56,30-Sep-21,0.7625,0.75,0.58140625,0.5625
10:20:56,30-Sep-21,0.7625,0.751,0.58140625,0.564001
10:20:56,30-Sep-21,0.7625,0.751,0.58140625,0.564001
10:20:56,30-Sep-21,0.7625,0.752,0.58140625,0.565504
10:20:56,30-Sep-21,0.7625,0.752,0.58140625,0.565504
10:20:56,30-Sep-21,0.7625,0.753,0.58140625,0.567009
10:20:56,30-Sep-21,0.7575,0.753,0.57380625,0.567009
10:20:57,30-Sep-21,0.7575,0.754,0.57380625,0.568516
10:20:57,30-Sep-21,0.7575,0.754,0.57380625,0.568516
10:20:57,30-Sep-21,0.7575,0.754,0.57380625,0.568516
10:20:57,30-Sep-21,0.7575,0.755,0.57380625,0.570025
10:20:57,30-Sep-21,0.748,0.755,0.559504,0.570025
10:20:57,30-Sep-21,0.748,0.756,0.559504,0.571536
10:20:57,30-Sep-21,0.748,0.756,0.559504,0.571536
10:20:57,30-Sep-21,0.748,0.756,0.559504,0.571536
10:20:57,30-Sep-21,0.748,0.757,0.559504,0.573049
10:20:57,30-Sep-21,0.748,0.757,0.559504,0.573049
10:20:57,30-Sep-21,0.748,0.758,0.559504,0.574564
10:20:57,30-Sep-21,0.748,0.758,0.559504,0.574564
10:20:57,30-Sep-21,0.748,0.759,0.559504,0.576081
10:20:57,30-Sep-21,0.748,0.759,0.559504,0.576081
10:20:57,30-Sep-21,0.748,0.76,0.559504,0.5776
10:20:57,30-Sep-21,0.748,0.761,0.559504,0.579121
10:20:57,30-Sep-21,0.748,0.761,0.559504,0.579121
10:20:57,30-Sep-21,0.748,0.762,0.559504,0.580644
10:20:57,30-Sep-21,0.7525,0.762,0.56625625,0.580644
10:20:57,30-Sep-21,0.7525,0.763,0.56625625,0.582169
10:20:57,30-Sep-21,0.772,0.763,0.595984,0.582169
10:20:57,30-Sep-21,0.772,0.764,0.595984,0.583696
10:20:57,30-Sep-21,0.772,0.764,0.595984,0.583696
10:20:57,30-Sep-21,0.777,0.765,0.603729,0.585225
10:20:57,30-Sep-21,0.777,0.765,0.603729,0.585225
10:20:57,30-Sep-21,0.777,0.766,0.603729,0.586756
10:20:57,30-Sep-21,0.777,0.766,0.603729,0.586756
10:20:57,30-Sep-21,0.777,0.766,0.603729,0.586756
10:20:57,30-Sep-21,0.777,0.766,0.603729,0.586756
10:20:57,30-Sep-21,0.777,0.766,0.603729,0.586756
10:20:57,30-Sep-21,0.777,0.766,0.603729,0.586756
10:20:57,30-Sep-21,0.777,0.766,0.603729,0.586756
10:20:57,30-Sep-21,0.777,0.766,0.603729,0.586756
10:20:57,30-Sep-21,0.777,0.766,0.603729,0.586756
10:20:57,30-Sep-21,0.777,0.766,0.603729,0.586756
10:20:57,30-Sep-21,0.7675,0.765,0.58905625,0.585225
10:20:57,30-Sep-21,0.7675,0.765,0.58905625,0.585225
10:20:57,30-Sep-21,0.7675,0.765,0.58905625,0.585225
10:20:57,30-Sep-21,0.7675,0.764,0.58905625,0.583696
10:20:57,30-Sep-21,0.7625,0.764,0.58140625,0.583696
10:20:57,30-Sep-21,0.7625,0.764,0.58140625,0.583696
10:20:57,30-Sep-21,0.7625,0.763,0.58140625,0.582169
10:20:57,30-Sep-21,0.7525,0.763,0.56625625,0.582169
10:20:57,30-Sep-21,0.7525,0.763,0.56625625,0.582169
10:20:57,30-Sep-21,0.7525,0.762,0.56625625,0.580644
10:20:57,30-Sep-21,0.7525,0.762,0.56625625,0.580644
10:20:57,30-Sep-21,0.7525,0.762,0.56625625,0.580644
10:20:57,30-Sep-21,0.7525,0.762,0.56625625,0.580644
10:20:57,30-Sep-21,0.7525,0.762,0.56625625,0.580644
10:20:57,30-Sep-21,0.7525,0.762,0.56625625,0.580644
10:20:57,30-Sep-21,0.7525,0.762,0.56625625,0.580644
10:20:57,30-Sep-21,0.7525,0.762,0.56625625,0.580644
10:20:57,30-Sep-21,0.7525,0.763,0.56625625,0.582169
10:20:57,30-Sep-21,0.7525,0.763,0.56625625,0.582169
10:20:57,30-Sep-21,0.7625,0.763,0.58140625,0.582169
10:20:57,30-Sep-21,0.7625,0.764,0.58140625,0.583696
10:20:57,30-Sep-21,0.7625,0.764,0.58140625,0.583696
10:20:57,30-Sep-21,0.7625,0.765,0.58140625,0.585225
10:20:57,30-Sep-21,0.7625,0.766,0.58140625,0.586756
10:20:57,30-Sep-21,0.7675,0.766,0.58905625,0.586756
10:20:57,30-Sep-21,0.7675,0.767,0.58905625,0.588289
10:20:57,30-Sep-21,0.7675,0.768,0.58905625,0.589824
10:20:57,30-Sep-21,0.7675,0.768,0.58905625,0.589824
10:20:57,30-Sep-21,0.7675,0.769,0.58905625,0.591361
10:20:57,30-Sep-21,0.7675,0.77,0.58905625,0.5929
10:20:57,30-Sep-21,0.7675,0.77,0.58905625,0.5929
10:20:57,30-Sep-21,0.782,0.771,0.611524,0.594441
10:20:57,30-Sep-21,0.782,0.771,0.611524,0.594441
10:20:57,30-Sep-21,0.782,0.772,0.611524,0.595984
10:20:57,30-Sep-21,0.787,0.772,0.619369,0.595984
10:20:57,30-Sep-21,0.787,0.773,0.619369,0.597529
10:20:57,30-Sep-21,0.787,0.773,0.619369,0.597529
10:20:57,30-Sep-21,0.787,0.773,0.619369,0.597529
10:20:57,30-Sep-21,0.787,0.773,0.619369,0.597529
10:20:57,30-Sep-21,0.787,0.774,0.619369,0.599076
10:20:57,30-Sep-21,0.782,0.774,0.611524,0.599076
10:20:57,30-Sep-21,0.782,0.774,0.611524,0.599076
10:20:57,30-Sep-21,0.782,0.774,0.611524,0.599076
10:20:57,30-Sep-21,0.782,0.774,0.611524,0.599076
10:20:57,30-Sep-21,0.782,0.774,0.611524,0.599076
10:20:57,30-Sep-21,0.772,0.774,0.595984,0.599076
10:20:57,30-Sep-21,0.772,0.774,0.595984,0.599076
10:20:57,30-Sep-21,0.772,0.774,0.595984,0.599076
10:20:57,30-Sep-21,0.7675,0.774,0.58905625,0.599076
10:20:57,30-Sep-21,0.7675,0.774,0.58905625,0.599076
10:20:57,30-Sep-21,0.7625,0.775,0.58140625,0.600625
10:20:57,30-Sep-21,0.7625,0.775,0.58140625,0.600625
10:20:57,30-Sep-21,0.7625,0.775,0.58140625,0.600625
10:20:57,30-Sep-21,0.7575,0.776,0.57380625,0.602176
10:20:57,30-Sep-21,0.7575,0.776,0.57380625,0.602176
10:20:57,30-Sep-21,0.7575,0.777,0.57380625,0.603729
10:20:57,30-Sep-21,0.7575,0.777,0.57380625,0.603729
10:20:57,30-Sep-21,0.7625,0.778,0.58140625,0.605284
10:20:57,30-Sep-21,0.7625,0.779,0.58140625,0.606841
10:20:57,30-Sep-21,0.7625,0.779,0.58140625,0.606841
10:20:57,30-Sep-21,0.7625,0.78,0.58140625,0.6084
10:20:57,30-Sep-21,0.777,0.781,0.603729,0.609961
10:20:57,30-Sep-21,0.777,0.782,0.603729,0.611524
10:20:57,30-Sep-21,0.777,0.783,0.603729,0.613089
10:20:57,30-Sep-21,0.792,0.784,0.627264,0.614656
10:20:57,30-Sep-21,0.792,0.785,0.627264,0.616225
10:20:57,30-Sep-21,0.792,0.785,0.627264,0.616225
10:20:57,30-Sep-21,0.8015,0.786,0.64240225,0.617796
10:20:57,30-Sep-21,0.8015,0.787,0.64240225,0.619369
10:20:57,30-Sep-21,0.8015,0.787,0.64240225,0.619369
10:20:57,30-Sep-21,0.8065,0.788,0.65044225,0.620944
10:20:57,30-Sep-21,0.8065,0.788,0.65044225,0.620944
10:20:57,30-Sep-21,0.8065,0.789,0.65044225,0.622521
10:20:57,30-Sep-21,0.8015,0.789,0.64240225,0.622521
10:20:57,30-Sep-21,0.8015,0.789,0.64240225,0.622521
10:20:57,30-Sep-21,0.8015,0.789,0.64240225,0.622521
10:20:57,30-Sep-21,0.8015,0.79,0.64240225,0.6241
10:20:57,30-Sep-21,0.8015,0.789,0.64240225,0.622521
10:20:57,30-Sep-21,0.7965,0.789,0.63441225,0.622521
10:20:57,30-Sep-21,0.7965,0.789,0.63441225,0.622521
10:20:57,30-Sep-21,0.7965,0.789,0.63441225,0.622521
10:20:57,30-Sep-21,0.792,0.789,0.627264,0.622521
10:20:57,30-Sep-21,0.792,0.788,0.627264,0.620944
10:20:57,30-Sep-21,0.792,0.788,0.627264,0.620944
10:20:57,30-Sep-21,0.782,0.788,0.611524,0.620944
10:20:57,30-Sep-21,0.782,0.787,0.611524,0.619369
10:20:57,30-Sep-21,0.782,0.787,0.611524,0.619369
10:20:57,30-Sep-21,0.782,0.787,0.611524,0.619369
10:20:57,30-Sep-21,0.772,0.787,0.595984,0.619369
10:20:57,30-Sep-21,0.772,0.786,0.595984,0.617796
10:20:57,30-Sep-21,0.772,0.786,0.595984,0.617796
10:20:57,30-Sep-21,0.772,0.786,0.595984,0.617796
10:20:57,30-Sep-21,0.772,0.786,0.595984,0.617796
10:20:57,30-Sep-21,0.772,0.787,0.595984,0.619369
10:20:57,30-Sep-21,0.772,0.787,0.595984,0.619369
10:20:57,30-Sep-21,0.772,0.787,0.595984,0.619369
10:20:57,30-Sep-21,0.772,0.788,0.595984,0.620944
10:20:57,30-Sep-21,0.772,0.788,0.595984,0.620944
10:20:57,30-Sep-21,0.792,0.789,0.627264,0.622521
10:20:57,30-Sep-21,0.792,0.79,0.627264,0.6241
10:20:57,30-Sep-21,0.792,0.791,0.627264,0.625681
10:20:57,30-Sep-21,0.7965,0.791,0.63441225,0.625681
10:20:57,30-Sep-21,0.7965,0.792,0.63441225,0.627264
10:20:57,30-Sep-21,0.7965,0.794,0.63441225,0.630436
10:20:57,30-Sep-21,0.8065,0.795,0.65044225,0.632025
10:20:57,30-Sep-21,0.8065,0.796,0.65044225,0.633616
10:20:57,30-Sep-21,0.8065,0.797,0.65044225,0.635209
10:20:57,30-Sep-21,0.8065,0.798,0.65044225,0.636804
10:20:57,30-Sep-21,0.8065,0.8,0.65044225,0.64
10:20:57,30-Sep-21,0.8065,0.801,0.65044225,0.641601
10:20:57,30-Sep-21,0.8065,0.802,0.65044225,0.643204
10:20:57,30-Sep-21,0.8065,0.804,0.65044225,0.646416
10:20:57,30-Sep-21,0.8065,0.805,0.65044225,0.648025
10:20:57,30-Sep-21,0.816,0.807,0.665856,0.651249
10:20:57,30-Sep-21,0.816,0.808,0.665856,0.652864
10:20:57,30-Sep-21,0.816,0.81,0.665856,0.6561
10:20:57,30-Sep-21,0.8115,0.811,0.65853225,0.657721
10:20:57,30-Sep-21,0.8115,0.813,0.65853225,0.660969
10:20:57,30-Sep-21,0.816,0.814,0.665856,0.662596
10:20:57,30-Sep-21,0.816,0.815,0.665856,0.664225
10:20:57,30-Sep-21,0.816,0.817,0.665856,0.667489
10:20:57,30-Sep-21,0.816,0.818,0.665856,0.669124
10:20:57,30-Sep-21,0.816,0.82,0.665856,0.6724
10:20:57,30-Sep-21,0.816,0.821,0.665856,0.674041
10:20:57,30-Sep-21,0.816,0.823,0.665856,0.677329
10:20:57,30-Sep-21,0.816,0.824,0.665856,0.678976
10:20:57,30-Sep-21,0.821,0.826,0.674041,0.682276
10:20:57,30-Sep-21,0.821,0.827,0.674041,0.683929
10:20:57,30-Sep-21,0.821,0.829,0.674041,0.687241
10:20:57,30-Sep-21,0.826,0.83,0.682276,0.6889
10:20:57,30-Sep-21,0.826,0.832,0.682276,0.692224
10:20:57,30-Sep-21,0.826,0.833,0.682276,0.693889
10:20:57,30-Sep-21,0.836,0.835,0.698896,0.697225
10:20:57,30-Sep-21,0.836,0.836,0.698896,0.698896
10:20:57,30-Sep-21,0.836,0.837,0.698896,0.700569
10:20:57,30-Sep-21,0.8455,0.839,0.71487025,0.703921
10:20:57,30-Sep-21,0.8455,0.84,0.71487025,0.7056
10:20:57,30-Sep-21,0.8455,0.841,0.71487025,0.707281
10:20:57,30-Sep-21,0.8455,0.843,0.71487025,0.710649
10:20:57,30-Sep-21,0.8455,0.844,0.71487025,0.712336
10:20:57,30-Sep-21,0.8505,0.845,0.72335025,0.714025
10:20:57,30-Sep-21,0.8505,0.846,0.72335025,0.715716
10:20:57,30-Sep-21,0.8505,0.847,0.72335025,0.717409
10:20:57,30-Sep-21,0.8555,0.848,0.73188025,0.719104
10:20:57,30-Sep-21,0.8555,0.849,0.73188025,0.720801
10:20:57,30-Sep-21,0.8555,0.85,0.73188025,0.7225
10:20:57,30-Sep-21,0.8555,0.851,0.73188025,0.724201
10:20:57,30-Sep-21,0.8555,0.852,0.73188025,0.725904
10:20:58,30-Sep-21,0.86,0.853,0.7396,0.727609
10:20:58,30-Sep-21,0.86,0.854,0.7396,0.729316
10:20:58,30-Sep-21,0.86,0.855,0.7396,0.731025
10:20:58,30-Sep-21,0.86,0.856,0.7396,0.732736
10:20:58,30-Sep-21,0.86,0.856,0.7396,0.732736
10:20:58,30-Sep-21,0.8505,0.857,0.72335025,0.734449
10:20:58,30-Sep-21,0.8505,0.858,0.72335025,0.736164
10:20:58,30-Sep-21,0.8505,0.859,0.72335025,0.737881
10:20:58,30-Sep-21,0.8555,0.859,0.73188025,0.737881
10:20:58,30-Sep-21,0.8555,0.86,0.73188025,0.7396
10:20:58,30-Sep-21,0.8555,0.861,0.73188025,0.741321
10:20:58,30-Sep-21,0.8555,0.862,0.73188025,0.743044
10:20:58,30-Sep-21,0.8555,0.862,0.73188025,0.743044
10:20:58,30-Sep-21,0.8555,0.863,0.73188025,0.744769
10:20:58,30-Sep-21,0.8555,0.864,0.73188025,0.746496
10:20:58,30-Sep-21,0.8555,0.865,0.73188025,0.748225
10:20:58,30-Sep-21,0.8555,0.866,0.73188025,0.749956
10:20:58,30-Sep-21,0.8555,0.866,0.73188025,0.749956
10:20:58,30-Sep-21,0.8555,0.867,0.73188025,0.751689
10:20:58,30-Sep-21,0.87,0.868,0.7569,0.753424
10:20:58,30-Sep-21,0.87,0.869,0.7569,0.755161
10:20:58,30-Sep-21,0.87,0.869,0.7569,0.755161
10:20:58,30-Sep-21,0.875,0.87,0.765625,0.7569
10:20:58,30-Sep-21,0.875,0.871,0.765625,0.758641
10:20:58,30-Sep-21,0.875,0.872,0.765625,0.760384
10:20:58,30-Sep-21,0.88,0.872,0.7744,0.760384
10:20:58,30-Sep-21,0.88,0.873,0.7744,0.762129
10:20:58,30-Sep-21,0.88,0.873,0.7744,0.762129
10:20:58,30-Sep-21,0.8845,0.874,0.78234025,0.763876
10:20:58,30-Sep-21,0.8845,0.875,0.78234025,0.765625
10:20:58,30-Sep-21,0.8845,0.875,0.78234025,0.765625
10:20:58,30-Sep-21,0.8845,0.875,0.78234025,0.765625
10:20:58,30-Sep-21,0.8845,0.876,0.78234025,0.767376
10:20:58,30-Sep-21,0.8845,0.876,0.78234025,0.767376
10:20:58,30-Sep-21,0.8845,0.876,0.78234025,0.767376
10:20:58,30-Sep-21,0.8845,0.877,0.78234025,0.769129
10:20:58,30-Sep-21,0.875,0.877,0.765625,0.769129
10:20:58,30-Sep-21,0.875,0.877,0.765625,0.769129
10:20:58,30-Sep-21,0.875,0.877,0.765625,0.769129
10:20:58,30-Sep-21,0.875,0.877,0.765625,0.769129
10:20:58,30-Sep-21,0.875,0.877,0.765625,0.769129
10:20:58,30-Sep-21,0.875,0.877,0.765625,0.769129
10:20:58,30-Sep-21,0.87,0.878,0.7569,0.770884
10:20:58,30-Sep-21,0.87,0.878,0.7569,0.770884
10:20:58,30-Sep-21,0.87,0.878,0.7569,0.770884
10:20:58,30-Sep-21,0.87,0.878,0.7569,0.770884
10:20:58,30-Sep-21,0.87,0.878,0.7569,0.770884
10:20:58,30-Sep-21,0.87,0.878,0.7569,0.770884
10:20:58,30-Sep-21,0.87,0.878,0.7569,0.770884
10:20:58,30-Sep-21,0.87,0.878,0.7569,0.770884
10:20:58,30-Sep-21,0.87,0.879,0.7569,0.772641
10:20:58,30-Sep-21,0.87,0.879,0.7569,0.772641
10:20:58,30-Sep-21,0.87,0.879,0.7569,0.772641
10:20:58,30-Sep-21,0.87,0.879,0.7569,0.772641
10:20:58,30-Sep-21,0.87,0.879,0.7569,0.772641
10:20:58,30-Sep-21,0.87,0.879,0.7569,0.772641
10:20:58,30-Sep-21,0.8895,0.88,0.79121025,0.7744
10:20:58,30-Sep-21,0.8895,0.88,0.79121025,0.7744
10:20:58,30-Sep-21,0.8895,0.88,0.79121025,0.7744
10:20:58,30-Sep-21,0.8895,0.88,0.79121025,0.7744
10:20:58,30-Sep-21,0.8895,0.88,0.79121025,0.7744
10:20:58,30-Sep-21,0.8895,0.88,0.79121025,0.7744
10:20:58,30-Sep-21,0.8895,0.88,0.79121025,0.7744
10:20:58,30-Sep-21,0.8895,0.879,0.79121025,0.772641
10:20:58,30-Sep-21,0.8895,0.879,0.79121025,0.772641
10:20:58,30-Sep-21,0.8895,0.879,0.79121025,0.772641
10:20:58,30-Sep-21,0.8895,0.879,0.79121025,0.772641
10:20:58,30-Sep-21,0.8895,0.878,0.79121025,0.770884
10:20:58,30-Sep-21,0.8895,0.878,0.79121025,0.770884
10:20:58,30-Sep-21,0.8845,0.878,0.78234025,0.770884
10:20:58,30-Sep-21,0.8845,0.877,0.78234025,0.769129
10:20:58,30-Sep-21,0.875,0.877,0.765625,0.769129
10:20:58,30-Sep-21,0.875,0.876,0.765625,0.767376
10:20:58,30-Sep-21,0.87,0.876,0.7569,0.767376
10:20:58,30-Sep-21,0.87,0.875,0.7569,0.765625
10:20:58,30-Sep-21,0.87,0.875,0.7569,0.765625
10:20:58,30-Sep-21,0.86,0.875,0.7396,0.765625
10:20:58,30-Sep-21,0.86,0.874,0.7396,0.763876
10:20:58,30-Sep-21,0.86,0.874,0.7396,0.763876
10:20:58,30-Sep-21,0.8555,0.873,0.73188025,0.762129
10:20:58,30-Sep-21,0.8555,0.873,0.73188025,0.762129
10:20:58,30-Sep-21,0.86,0.873,0.7396,0.762129
10:20:58,30-Sep-21,0.86,0.872,0.7396,0.760384
10:20:58,30-Sep-21,0.865,0.872,0.748225,0.760384
10:20:58,30-Sep-21,0.865,0.872,0.748225,0.760384
10:20:58,30-Sep-21,0.875,0.872,0.765625,0.760384
10:20:58,30-Sep-21,0.875,0.871,0.765625,0.758641
10:20:58,30-Sep-21,0.8845,0.871,0.78234025,0.758641
10:20:58,30-Sep-21,0.8845,0.871,0.78234025,0.758641
10:20:58,30-Sep-21,0.8845,0.871,0.78234025,0.758641
10:20:58,30-Sep-21,0.8845,0.871,0.78234025,0.758641
10:20:58,30-Sep-21,0.8845,0.87,0.78234025,0.7569
10:20:58,30-Sep-21,0.88,0.87,0.7744,0.7569
10:20:58,30-Sep-21,0.88,0.87,0.7744,0.7569
10:20:58,30-Sep-21,0.875,0.87,0.765625,0.7569
10:20:58,30-Sep-21,0.875,0.87,0.765625,0.7569
10:20:58,30-Sep-21,0.875,0.87,0.765625,0.7569
10:20:58,30-Sep-21,0.86,0.869,0.7396,0.755161
10:20:58,30-Sep-21,0.86,0.869,0.7396,0.755161
10:20:58,30-Sep-21,0.86,0.869,0.7396,0.755161
10:20:58,30-Sep-21,0.86,0.869,0.7396,0.755161
10:20:58,30-Sep-21,0.86,0.868,0.7396,0.753424
10:20:58,30-Sep-21,0.8555,0.868,0.73188025,0.753424
10:20:58,30-Sep-21,0.8555,0.868,0.73188025,0.753424
10:20:58,30-Sep-21,0.8555,0.868,0.73188025,0.753424
10:20:58,30-Sep-21,0.8555,0.867,0.73188025,0.751689
10:20:58,30-Sep-21,0.8555,0.867,0.73188025,0.751689
10:20:58,30-Sep-21,0.86,0.867,0.7396,0.751689
10:20:58,30-Sep-21,0.86,0.867,0.7396,0.751689
10:20:58,30-Sep-21,0.88,0.866,0.7744,0.749956
10:20:58,30-Sep-21,0.88,0.866,0.7744,0.749956
10:20:58,30-Sep-21,0.88,0.865,0.7744,0.748225
10:20:58,30-Sep-21,0.88,0.865,0.7744,0.748225
10:20:58,30-Sep-21,0.8845,0.864,0.78234025,0.746496
10:20:58,30-Sep-21,0.8845,0.864,0.78234025,0.746496
10:20:58,30-Sep-21,0.8845,0.863,0.78234025,0.744769
10:20:58,30-Sep-21,0.8845,0.863,0.78234025,0.744769
10:20:58,30-Sep-21,0.8845,0.862,0.78234025,0.743044
10:20:58,30-Sep-21,0.865,0.862,0.748225,0.743044
10:20:58,30-Sep-21,0.865,0.861,0.748225,0.741321
10:20:58,30-Sep-21,0.8555,0.861,0.73188025,0.741321
10:20:58,30-Sep-21,0.8555,0.86,0.73188025,0.7396
10:20:58,30-Sep-21,0.8455,0.86,0.71487025,0.7396
10:20:58,30-Sep-21,0.8455,0.859,0.71487025,0.737881
10:20:58,30-Sep-21,0.8405,0.859,0.70644025,0.737881
10:20:58,30-Sep-21,0.8405,0.859,0.70644025,0.737881
10:20:58,30-Sep-21,0.8405,0.858,0.70644025,0.736164
10:20:58,30-Sep-21,0.8405,0.858,0.70644025,0.736164
10:20:58,30-Sep-21,0.8405,0.858,0.70644025,0.736164
10:20:58,30-Sep-21,0.8405,0.858,0.70644025,0.736164
10:20:58,30-Sep-21,0.8455,0.857,0.71487025,0.734449
10:20:58,30-Sep-21,0.8505,0.857,0.72335025,0.734449
10:20:58,30-Sep-21,0.8505,0.857,0.72335025,0.734449
10:20:58,30-Sep-21,0.865,0.857,0.748225,0.734449
10:20:58,30-Sep-21,0.865,0.858,0.748225,0.736164
10:20:58,30-Sep-21,0.87,0.858,0.7569,0.736164
10:20:58,30-Sep-21,0.87,0.858,0.7569,0.736164
10:20:58,30-Sep-21,0.87,0.858,0.7569,0.736164
10:20:58,30-Sep-21,0.87,0.858,0.7569,0.736164
10:20:58,30-Sep-21,0.87,0.859,0.7569,0.737881
10:20:58,30-Sep-21,0.87,0.859,0.7569,0.737881
10:20:58,30-Sep-21,0.87,0.859,0.7569,0.737881
10:20:58,30-Sep-21,0.87,0.86,0.7569,0.7396
10:20:58,30-Sep-21,0.86,0.86,0.7396,0.7396
10:20:58,30-Sep-21,0.86,0.86,0.7396,0.7396
10:20:58,30-Sep-21,0.86,0.861,0.7396,0.741321
10:20:58,30-Sep-21,0.86,0.861,0.7396,0.741321
10:20:59,30-Sep-21,0.86,0.862,0.7396,0.743044
10:20:59,30-Sep-21,0.86,0.862,0.7396,0.743044
10:20:59,30-Sep-21,0.86,0.862,0.7396,0.743044
10:20:59,30-Sep-21,0.86,0.863,0.7396,0.744769
10:20:59,30-Sep-21,0.86,0.863,0.7396,0.744769
10:20:59,30-Sep-21,0.86,0.864,0.7396,0.746496
10:20:59,30-Sep-21,0.86,0.864,0.7396,0.746496
10:20:59,30-Sep-21,0.86,0.865,0.7396,0.748225
10:20:59,30-Sep-21,0.86,0.866,0.7396,0.749956
10:20:59,30-Sep-21,0.86,0.866,0.7396,0.749956
10:20:59,30-Sep-21,0.8555,0.867,0.73188025,0.751689
10:20:59,30-Sep-21,0.8555,0.867,0.73188025,0.751689
10:20:59,30-Sep-21,0.86,0.868,0.7396,0.753424
10:20:59,30-Sep-21,0.86,0.868,0.7396,0.753424
10:20:59,30-Sep-21,0.87,0.869,0.7569,0.755161
10:20:59,30-Sep-21,0.87,0.869,0.7569,0.755161
10:20:59,30-Sep-21,0.87,0.87,0.7569,0.7569
10:20:59,30-Sep-21,0.87,0.87,0.7569,0.7569
10:20:59,30-Sep-21,0.87,0.871,0.7569,0.758641
10:20:59,30-Sep-21,0.87,0.871,0.7569,0.758641
10:20:59,30-Sep-21,0.8845,0.871,0.78234025,0.758641
10:20:59,30-Sep-21,0.8845,0.872,0.78234025,0.760384
10:20:59,30-Sep-21,0.8845,0.872,0.78234025,0.760384
10:20:59,30-Sep-21,0.8845,0.872,0.78234025,0.760384
10:20:59,30-Sep-21,0.88,0.872,0.7744,0.760384
10:20:59,30-Sep-21,0.88,0.872,0.7744,0.760384
10:20:59,30-Sep-21,0.88,0.872,0.7744,0.760384
10:20:59,30-Sep-21,0.88,0.872,0.7744,0.760384
10:20:59,30-Sep-21,0.88,0.872,0.7744,0.760384
10:20:59,30-Sep-21,0.88,0.872,0.7744,0.760384
10:20:59,30-Sep-21,0.88,0.872,0.7744,0.760384
10:20:59,30-Sep-21,0.875,0.872,0.765625,0.760384
10:20:59,30-Sep-21,0.875,0.872,0.765625,0.760384
10:20:59,30-Sep-21,0.865,0.872,0.748225,0.760384
10:20:59,30-Sep-21,0.865,0.872,0.748225,0.760384
10:20:59,30-Sep-21,0.86,0.871,0.7396,0.758641
10:20:59,30-Sep-21,0.86,0.871,0.7396,0.758641
10:20:59,30-Sep-21,0.86,0.871,0.7396,0.758641
10:20:59,30-Sep-21,0.86,0.871,0.7396,0.758641
10:20:59,30-Sep-21,0.86,0.871,0.7396,0.758641
10:20:59,30-Sep-21,0.86,0.871,0.7396,0.758641
10:20:59,30-Sep-21,0.86,0.871,0.7396,0.758641
10:20:59,30-Sep-21,0.86,0.871,0.7396,0.758641
10:20:59,30-Sep-21,0.86,0.871,0.7396,0.758641
10:20:59,30-Sep-21,0.86,0.871,0.7396,0.758641
10:20:59,30-Sep-21,0.86,0.871,0.7396,0.758641
10:20:59,30-Sep-21,0.88,0.872,0.7744,0.760384
10:20:59,30-Sep-21,0.8845,0.872,0.78234025,0.760384
10:20:59,30-Sep-21,0.8845,0.872,0.78234025,0.760384
10:20:59,30-Sep-21,0.8895,0.872,0.79121025,0.760384
10:20:59,30-Sep-21,0.8895,0.873,0.79121025,0.762129
10:20:59,30-Sep-21,0.8895,0.873,0.79121025,0.762129
10:20:59,30-Sep-21,0.8895,0.873,0.79121025,0.762129
10:20:59,30-Sep-21,0.8845,0.874,0.78234025,0.763876
10:20:59,30-Sep-21,0.875,0.874,0.765625,0.763876
10:20:59,30-Sep-21,0.87,0.875,0.7569,0.765625
10:20:59,30-Sep-21,0.87,0.875,0.7569,0.765625
10:20:59,30-Sep-21,0.86,0.876,0.7396,0.767376
10:20:59,30-Sep-21,0.86,0.876,0.7396,0.767376
10:20:59,30-Sep-21,0.86,0.877,0.7396,0.769129
10:20:59,30-Sep-21,0.865,0.877,0.748225,0.769129
10:20:59,30-Sep-21,0.87,0.878,0.7569,0.770884
10:20:59,30-Sep-21,0.87,0.878,0.7569,0.770884
10:20:59,30-Sep-21,0.8945,0.879,0.80013025,0.772641
10:20:59,30-Sep-21,0.8945,0.88,0.80013025,0.7744
10:20:59,30-Sep-21,0.8945,0.881,0.80013025,0.776161
10:20:59,30-Sep-21,0.8945,0.881,0.80013025,0.776161
10:20:59,30-Sep-21,0.8995,0.882,0.80910025,0.777924
10:20:59,30-Sep-21,0.8945,0.883,0.80013025,0.779689
10:20:59,30-Sep-21,0.8945,0.884,0.80013025,0.781456
10:20:59,30-Sep-21,0.8945,0.885,0.80013025,0.783225
10:20:59,30-Sep-21,0.88,0.886,0.7744,0.784996
10:20:59,30-Sep-21,0.88,0.887,0.7744,0.786769
10:20:59,30-Sep-21,0.88,0.888,0.7744,0.788544
10:20:59,30-Sep-21,0.88,0.889,0.7744,0.790321
10:20:59,30-Sep-21,0.875,0.891,0.765625,0.793881
10:20:59,30-Sep-21,0.875,0.892,0.765625,0.795664
10:20:59,30-Sep-21,0.88,0.893,0.7744,0.797449
10:20:59,30-Sep-21,0.88,0.894,0.7744,0.799236
10:20:59,30-Sep-21,0.8945,0.896,0.80013025,0.802816
10:20:59,30-Sep-21,0.8945,0.897,0.80013025,0.804609
10:20:59,30-Sep-21,0.8945,0.899,0.80013025,0.808201
10:20:59,30-Sep-21,0.8995,0.9,0.80910025,0.81
10:20:59,30-Sep-21,0.8995,0.902,0.80910025,0.813604
10:20:59,30-Sep-21,0.909,0.904,0.826281,0.817216
10:20:59,30-Sep-21,0.919,0.905,0.844561,0.819025
10:20:59,30-Sep-21,0.919,0.907,0.844561,0.822649
10:20:59,30-Sep-21,0.919,0.908,0.844561,0.824464
10:20:59,30-Sep-21,0.914,0.91,0.835396,0.8281
10:20:59,30-Sep-21,0.914,0.912,0.835396,0.831744
10:20:59,30-Sep-21,0.914,0.913,0.835396,0.833569
10:20:59,30-Sep-21,0.914,0.915,0.835396,0.837225
10:20:59,30-Sep-21,0.909,0.916,0.826281,0.839056
10:20:59,30-Sep-21,0.909,0.918,0.826281,0.842724
10:20:59,30-Sep-21,0.909,0.919,0.826281,0.844561
10:20:59,30-Sep-21,0.909,0.921,0.826281,0.848241
10:20:59,30-Sep-21,0.909,0.922,0.826281,0.850084
10:20:59,30-Sep-21,0.914,0.924,0.835396,0.853776
10:20:59,30-Sep-21,0.919,0.925,0.844561,0.855625
10:20:59,30-Sep-21,0.9435,0.926,0.89019225,0.857476
10:20:59,30-Sep-21,0.948,0.928,0.898704,0.861184
10:20:59,30-Sep-21,0.953,0.929,0.908209,0.863041
10:20:59,30-Sep-21,0.953,0.93,0.908209,0.8649
10:20:59,30-Sep-21,0.948,0.931,0.898704,0.866761
10:20:59,30-Sep-21,0.9385,0.932,0.88078225,0.868624
10:21:00,30-Sep-21,0.9335,0.933,0.87142225,0.870489
10:21:00,30-Sep-21,0.924,0.933,0.853776,0.870489
10:21:00,30-Sep-21,0.919,0.934,0.844561,0.872356
10:21:00,30-Sep-21,0.919,0.935,0.844561,0.874225
10:21:00,30-Sep-21,0.919,0.935,0.844561,0.874225
10:21:00,30-Sep-21,0.9285,0.936,0.86211225,0.876096
10:21:00,30-Sep-21,0.9285,0.936,0.86211225,0.876096
10:21:00,30-Sep-21,0.9385,0.937,0.88078225,0.877969
10:21:00,30-Sep-21,0.953,0.937,0.908209,0.877969
10:21:00,30-Sep-21,0.953,0.937,0.908209,0.877969
10:21:00,30-Sep-21,0.953,0.938,0.908209,0.879844
10:21:00,30-Sep-21,0.953,0.938,0.908209,0.879844
10:21:00,30-Sep-21,0.948,0.938,0.898704,0.879844
10:21:00,30-Sep-21,0.9435,0.938,0.89019225,0.879844
10:21:00,30-Sep-21,0.9435,0.938,0.89019225,0.879844
10:21:00,30-Sep-21,0.9335,0.938,0.87142225,0.879844
10:21:00,30-Sep-21,0.9335,0.939,0.87142225,0.881721
10:21:00,30-Sep-21,0.9335,0.939,0.87142225,0.881721
10:21:00,30-Sep-21,0.9285,0.939,0.86211225,0.881721
10:21:00,30-Sep-21,0.9285,0.939,0.86211225,0.881721
10:21:00,30-Sep-21,0.924,0.939,0.853776,0.881721
10:21:00,30-Sep-21,0.919,0.939,0.844561,0.881721
10:21:00,30-Sep-21,0.919,0.939,0.844561,0.881721
10:21:00,30-Sep-21,0.924,0.939,0.853776,0.881721
10:21:00,30-Sep-21,0.924,0.939,0.853776,0.881721
10:21:00,30-Sep-21,0.924,0.939,0.853776,0.881721
10:21:00,30-Sep-21,0.9435,0.939,0.89019225,0.881721
10:21:00,30-Sep-21,0.948,0.94,0.898704,0.8836
10:21:00,30-Sep-21,0.948,0.94,0.898704,0.8836
10:21:00,30-Sep-21,0.948,0.94,0.898704,0.8836
10:21:00,30-Sep-21,0.958,0.94,0.917764,0.8836
10:21:00,30-Sep-21,0.958,0.94,0.917764,0.8836
10:21:00,30-Sep-21,0.958,0.94,0.917764,0.8836
10:21:00,30-Sep-21,0.948,0.94,0.898704,0.8836
10:21:00,30-Sep-21,0.948,0.94,0.898704,0.8836
10:21:00,30-Sep-21,0.948,0.94,0.898704,0.8836
10:21:00,30-Sep-21,0.9435,0.94,0.89019225,0.8836
10:21:00,30-Sep-21,0.9435,0.94,0.89019225,0.8836
10:21:00,30-Sep-21,0.9435,0.94,0.89019225,0.8836
10:21:00,30-Sep-21,0.9385,0.94,0.88078225,0.8836
10:21:00,30-Sep-21,0.9385,0.94,0.88078225,0.8836
10:21:00,30-Sep-21,0.9285,0.94,0.86211225,0.8836
10:21:00,30-Sep-21,0.924,0.94,0.853776,0.8836
10:21:00,30-Sep-21,0.924,0.94,0.853776,0.8836
10:21:00,30-Sep-21,0.924,0.94,0.853776,0.8836
10:21:00,30-Sep-21,0.924,0.94,0.853776,0.8836
10:21:00,30-Sep-21,0.924,0.939,0.853776,0.881721
10:21:00,30-Sep-21,0.9285,0.939,0.86211225,0.881721
10:21:00,30-Sep-21,0.948,0.939,0.898704,0.881721
10:21:00,30-Sep-21,0.948,0.939,0.898704,0.881721
10:21:00,30-Sep-21,0.953,0.939,0.908209,0.881721
10:21:00,30-Sep-21,0.953,0.939,0.908209,0.881721
10:21:00,30-Sep-21,0.953,0.938,0.908209,0.879844
10:21:00,30-Sep-21,0.953,0.938,0.908209,0.879844
10:21:00,30-Sep-21,0.953,0.938,0.908209,0.879844
10:21:00,30-Sep-21,0.953,0.938,0.908209,0.879844
10:21:00,30-Sep-21,0.948,0.938,0.898704,0.879844
10:21:00,30-Sep-21,0.948,0.937,0.898704,0.877969
10:21:00,30-Sep-21,0.9335,0.937,0.87142225,0.877969
10:21:00,30-Sep-21,0.9335,0.937,0.87142225,0.877969
10:21:00,30-Sep-21,0.9335,0.937,0.87142225,0.877969
10:21:00,30-Sep-21,0.9335,0.936,0.87142225,0.876096
10:21:00,30-Sep-21,0.9335,0.936,0.87142225,0.876096
10:21:00,30-Sep-21,0.9285,0.936,0.86211225,0.876096
10:21:00,30-Sep-21,0.9285,0.936,0.86211225,0.876096
10:21:00,30-Sep-21,0.9285,0.936,0.86211225,0.876096
10:21:00,30-Sep-21,0.919,0.936,0.844561,0.876096
10:21:00,30-Sep-21,0.919,0.936,0.844561,0.876096
10:21:00,30-Sep-21,0.919,0.936,0.844561,0.876096
10:21:00,30-Sep-21,0.919,0.936,0.844561,0.876096
10:21:00,30-Sep-21,0.919,0.936,0.844561,0.876096
10:21:00,30-Sep-21,0.9335,0.936,0.87142225,0.876096
10:21:00,30-Sep-21,0.9335,0.936,0.87142225,0.876096
10:21:00,30-Sep-21,0.9335,0.936,0.87142225,0.876096
10:21:00,30-Sep-21,0.9385,0.937,0.88078225,0.877969
10:21:00,30-Sep-21,0.9385,0.937,0.88078225,0.877969
10:21:00,30-Sep-21,0.9385,0.937,0.88078225,0.877969
10:21:00,30-Sep-21,0.9385,0.937,0.88078225,0.877969
10:21:00,30-Sep-21,0.953,0.937,0.908209,0.877969
10:21:00,30-Sep-21,0.953,0.937,0.908209,0.877969
10:21:00,30-Sep-21,0.953,0.937,0.908209,0.877969
10:21:00,30-Sep-21,0.953,0.937,0.908209,0.877969
10:21:00,30-Sep-21,0.953,0.937,0.908209,0.877969
10:21:00,30-Sep-21,0.953,0.937,0.908209,0.877969
10:21:00,30-Sep-21,0.948,0.937,0.898704,0.877969
10:21:00,30-Sep-21,0.948,0.937,0.898704,0.877969
10:21:00,30-Sep-21,0.9435,0.937,0.89019225,0.877969
10:21:00,30-Sep-21,0.9435,0.937,0.89019225,0.877969
10:21:00,30-Sep-21,0.9385,0.937,0.88078225,0.877969
10:21:00,30-Sep-21,0.9385,0.937,0.88078225,0.877969
10:21:00,30-Sep-21,0.9385,0.937,0.88078225,0.877969
10:21:00,30-Sep-21,0.924,0.937,0.853776,0.877969
10:21:00,30-Sep-21,0.924,0.936,0.853776,0.876096
10:21:00,30-Sep-21,0.919,0.936,0.844561,0.876096
10:21:00,30-Sep-21,0.914,0.936,0.835396,0.876096
10:21:00,30-Sep-21,0.914,0.936,0.835396,0.876096
10:21:00,30-Sep-21,0.919,0.936,0.844561,0.876096
10:21:00,30-Sep-21,0.919,0.936,0.844561,0.876096
10:21:00,30-Sep-21,0.919,0.935,0.844561,0.874225
10:21:00,30-Sep-21,0.9335,0.935,0.87142225,0.874225
10:21:00,30-Sep-21,0.9335,0.935,0.87142225,0.874225
10:21:00,30-Sep-21,0.9385,0.935,0.88078225,0.874225
10:21:00,30-Sep-21,0.948,0.935,0.898704,0.874225
10:21:00,30-Sep-21,0.948,0.935,0.898704,0.874225
10:21:00,30-Sep-21,0.948,0.934,0.898704,0.872356
10:21:00,30-Sep-21,0.9435,0.934,0.89019225,0.872356
10:21:00,30-Sep-21,0.9435,0.934,0.89019225,0.872356
10:21:00,30-Sep-21,0.9435,0.934,0.89019225,0.872356
10:21:00,30-Sep-21,0.9435,0.933,0.89019225,0.870489
10:21:00,30-Sep-21,0.9435,0.933,0.89019225,0.870489
10:21:00,30-Sep-21,0.9435,0.933,0.89019225,0.870489
10:21:00,30-Sep-21,0.9435,0.933,0.89019225,0.870489
10:21:00,30-Sep-21,0.9435,0.932,0.89019225,0.868624
10:21:00,30-Sep-21,0.9285,0.932,0.86211225,0.868624
10:21:00,30-Sep-21,0.9285,0.932,0.86211225,0.868624
10:21:00,30-Sep-21,0.9285,0.931,0.86211225,0.866761
10:21:01,30-Sep-21,0.9285,0.931,0.86211225,0.866761
10:21:01,30-Sep-21,0.914,0.931,0.835396,0.866761
10:21:01,30-Sep-21,0.914,0.931,0.835396,0.866761
10:21:01,30-Sep-21,0.909,0.93,0.826281,0.8649
10:21:01,30-Sep-21,0.909,0.93,0.826281,0.8649
10:21:01,30-Sep-21,0.914,0.93,0.835396,0.8649
10:21:01,30-Sep-21,0.914,0.93,0.835396,0.8649
10:21:01,30-Sep-21,0.9385,0.93,0.88078225,0.8649
10:21:01,30-Sep-21,0.9385,0.929,0.88078225,0.863041
10:21:01,30-Sep-21,0.9435,0.929,0.89019225,0.863041
10:21:01,30-Sep-21,0.9435,0.929,0.89019225,0.863041
10:21:01,30-Sep-21,0.948,0.929,0.898704,0.863041
10:21:01,30-Sep-21,0.948,0.929,0.898704,0.863041
10:21:01,30-Sep-21,0.9435,0.929,0.89019225,0.863041
10:21:01,30-Sep-21,0.9385,0.929,0.88078225,0.863041
10:21:01,30-Sep-21,0.9285,0.929,0.86211225,0.863041
10:21:01,30-Sep-21,0.924,0.929,0.853776,0.863041
10:21:01,30-Sep-21,0.924,0.929,0.853776,0.863041
10:21:01,30-Sep-21,0.924,0.93,0.853776,0.8649
10:21:01,30-Sep-21,0.914,0.93,0.835396,0.8649
10:21:01,30-Sep-21,0.914,0.93,0.835396,0.8649
10:21:01,30-Sep-21,0.914,0.93,0.835396,0.8649
10:21:01,30-Sep-21,0.924,0.931,0.853776,0.866761
10:21:01,30-Sep-21,0.924,0.931,0.853776,0.866761
10:21:01,30-Sep-21,0.924,0.931,0.853776,0.866761
10:21:01,30-Sep-21,0.9385,0.932,0.88078225,0.868624
10:21:01,30-Sep-21,0.9385,0.932,0.88078225,0.868624
10:21:01,30-Sep-21,0.9385,0.933,0.88078225,0.870489
10:21:01,30-Sep-21,0.953,0.933,0.908209,0.870489
10:21:01,30-Sep-21,0.948,0.934,0.898704,0.872356
10:21:01,30-Sep-21,0.948,0.934,0.898704,0.872356
10:21:01,30-Sep-21,0.9435,0.935,0.89019225,0.874225
10:21:01,30-Sep-21,0.9435,0.935,0.89019225,0.874225
10:21:01,30-Sep-21,0.9435,0.936,0.89019225,0.876096
10:21:01,30-Sep-21,0.9385,0.936,0.88078225,0.876096
10:21:01,30-Sep-21,0.924,0.937,0.853776,0.877969
10:21:01,30-Sep-21,0.924,0.937,0.853776,0.877969
10:21:01,30-Sep-21,0.924,0.938,0.853776,0.879844
10:21:01,30-Sep-21,0.924,0.939,0.853776,0.881721
10:21:01,30-Sep-21,0.919,0.939,0.844561,0.881721
10:21:01,30-Sep-21,0.924,0.94,0.853776,0.8836
10:21:01,30-Sep-21,0.924,0.94,0.853776,0.8836
10:21:01,30-Sep-21,0.924,0.941,0.853776,0.885481
10:21:01,30-Sep-21,0.9285,0.941,0.86211225,0.885481
10:21:01,30-Sep-21,0.948,0.942,0.898704,0.887364
10:21:01,30-Sep-21,0.948,0.942,0.898704,0.887364
10:21:01,30-Sep-21,0.953,0.942,0.908209,0.887364
10:21:01,30-Sep-21,0.958,0.942,0.917764,0.887364
10:21:01,30-Sep-21,0.958,0.942,0.917764,0.887364
10:21:01,30-Sep-21,0.958,0.942,0.917764,0.887364
10:21:01,30-Sep-21,0.958,0.942,0.917764,0.887364
10:21:01,30-Sep-21,0.948,0.942,0.898704,0.887364
10:21:01,30-Sep-21,0.9435,0.942,0.89019225,0.887364
10:21:01,30-Sep-21,0.9285,0.941,0.86211225,0.885481
10:21:01,30-Sep-21,0.9285,0.94,0.86211225,0.8836
10:21:01,30-Sep-21,0.9285,0.94,0.86211225,0.8836
10:21:01,30-Sep-21,0.9285,0.939,0.86211225,0.881721
10:21:01,30-Sep-21,0.924,0.938,0.853776,0.879844
10:21:01,30-Sep-21,0.9335,0.937,0.87142225,0.877969
10:21:01,30-Sep-21,0.9385,0.935,0.88078225,0.874225
10:21:01,30-Sep-21,0.953,0.934,0.908209,0.872356
10:21:01,30-Sep-21,0.953,0.932,0.908209,0.868624
10:21:01,30-Sep-21,0.953,0.93,0.908209,0.8649
10:21:01,30-Sep-21,0.953,0.928,0.908209,0.861184
10:21:01,30-Sep-21,0.948,0.926,0.898704,0.857476
10:21:01,30-Sep-21,0.9385,0.924,0.88078225,0.853776
10:21:01,30-Sep-21,0.924,0.922,0.853776,0.850084
10:21:01,30-Sep-21,0.919,0.92,0.844561,0.8464
10:21:01,30-Sep-21,0.909,0.917,0.826281,0.840889
10:21:01,30-Sep-21,0.909,0.915,0.826281,0.837225
10:21:01,30-Sep-21,0.904,0.912,0.817216,0.831744
10:21:01,30-Sep-21,0.8945,0.91,0.80013025,0.8281
10:21:01,30-Sep-21,0.8945,0.907,0.80013025,0.822649
10:21:01,30-Sep-21,0.904,0.904,0.817216,0.817216
10:21:01,30-Sep-21,0.904,0.902,0.817216,0.813604
10:21:01,30-Sep-21,0.904,0.899,0.817216,0.808201
10:21:01,30-Sep-21,0.904,0.897,0.817216,0.804609
10:21:01,30-Sep-21,0.8995,0.894,0.80910025,0.799236
10:21:01,30-Sep-21,0.8895,0.892,0.79121025,0.795664
10:21:01,30-Sep-21,0.8845,0.889,0.78234025,0.790321
10:21:01,30-Sep-21,0.88,0.887,0.7744,0.786769
10:21:01,30-Sep-21,0.88,0.884,0.7744,0.781456
10:21:02,30-Sep-21,0.88,0.882,0.7744,0.777924
10:21:02,30-Sep-21,0.865,0.88,0.748225,0.7744
10:21:02,30-Sep-21,0.86,0.878,0.7396,0.770884
10:21:02,30-Sep-21,0.86,0.876,0.7396,0.767376
10:21:02,30-Sep-21,0.86,0.874,0.7396,0.763876
10:21:02,30-Sep-21,0.86,0.873,0.7396,0.762129
10:21:02,30-Sep-21,0.86,0.871,0.7396,0.758641
10:21:02,30-Sep-21,0.86,0.87,0.7396,0.7569
10:21:02,30-Sep-21,0.875,0.868,0.765625,0.753424
10:21:02,30-Sep-21,0.88,0.867,0.7744,0.751689
10:21:02,30-Sep-21,0.88,0.866,0.7744,0.749956
10:21:02,30-Sep-21,0.88,0.865,0.7744,0.748225
10:21:02,30-Sep-21,0.88,0.864,0.7744,0.746496
10:21:02,30-Sep-21,0.88,0.863,0.7744,0.744769
10:21:02,30-Sep-21,0.87,0.862,0.7569,0.743044
10:21:02,30-Sep-21,0.87,0.861,0.7569,0.741321
10:21:02,30-Sep-21,0.86,0.861,0.7396,0.741321
10:21:02,30-Sep-21,0.8555,0.86,0.73188025,0.7396
10:21:02,30-Sep-21,0.8555,0.86,0.73188025,0.7396
10:21:02,30-Sep-21,0.8455,0.859,0.71487025,0.737881
10:21:02,30-Sep-21,0.8405,0.859,0.70644025,0.737881
10:21:02,30-Sep-21,0.8405,0.858,0.70644025,0.736164
10:21:02,30-Sep-21,0.8405,0.858,0.70644025,0.736164
10:21:02,30-Sep-21,0.8455,0.858,0.71487025,0.736164
10:21:02,30-Sep-21,0.8555,0.857,0.73188025,0.734449
10:21:02,30-Sep-21,0.8555,0.857,0.73188025,0.734449
10:21:02,30-Sep-21,0.87,0.857,0.7569,0.734449
10:21:02,30-Sep-21,0.87,0.857,0.7569,0.734449
10:21:02,30-Sep-21,0.87,0.856,0.7569,0.732736
10:21:02,30-Sep-21,0.87,0.856,0.7569,0.732736
10:21:02,30-Sep-21,0.875,0.856,0.765625,0.732736
10:21:02,30-Sep-21,0.875,0.855,0.765625,0.731025
10:21:02,30-Sep-21,0.865,0.855,0.748225,0.731025
10:21:02,30-Sep-21,0.86,0.855,0.7396,0.731025
10:21:02,30-Sep-21,0.8505,0.854,0.72335025,0.729316
10:21:02,30-Sep-21,0.8505,0.854,0.72335025,0.729316
10:21:02,30-Sep-21,0.8505,0.854,0.72335025,0.729316
10:21:02,30-Sep-21,0.8455,0.853,0.71487025,0.727609
10:21:02,30-Sep-21,0.8405,0.853,0.70644025,0.727609
10:21:02,30-Sep-21,0.8405,0.852,0.70644025,0.725904
10:21:02,30-Sep-21,0.8505,0.852,0.72335025,0.725904
10:21:02,30-Sep-21,0.8505,0.851,0.72335025,0.724201
10:21:02,30-Sep-21,0.8505,0.851,0.72335025,0.724201
10:21:02,30-Sep-21,0.8555,0.85,0.73188025,0.7225
10:21:02,30-Sep-21,0.86,0.85,0.7396,0.7225
10:21:02,30-Sep-21,0.865,0.849,0.748225,0.720801
10:21:02,30-Sep-21,0.86,0.849,0.7396,0.720801
10:21:02,30-Sep-21,0.86,0.849,0.7396,0.720801
10:21:02,30-Sep-21,0.8455,0.848,0.71487025,0.719104
10:21:02,30-Sep-21,0.8455,0.848,0.71487025,0.719104
10:21:02,30-Sep-21,0.831,0.847,0.690561,0.717409
10:21:02,30-Sep-21,0.831,0.847,0.690561,0.717409
10:21:02,30-Sep-21,0.831,0.847,0.690561,0.717409
10:21:02,30-Sep-21,0.831,0.846,0.690561,0.715716
10:21:02,30-Sep-21,0.831,0.846,0.690561,0.715716
10:21:02,30-Sep-21,0.831,0.846,0.690561,0.715716
10:21:02,30-Sep-21,0.831,0.845,0.690561,0.714025
10:21:02,30-Sep-21,0.836,0.845,0.698896,0.714025
10:21:02,30-Sep-21,0.8555,0.845,0.73188025,0.714025
10:21:02,30-Sep-21,0.8555,0.845,0.73188025,0.714025
10:21:02,30-Sep-21,0.8555,0.844,0.73188025,0.712336
10:21:02,30-Sep-21,0.86,0.844,0.7396,0.712336
10:21:02,30-Sep-21,0.86,0.844,0.7396,0.712336
10:21:02,30-Sep-21,0.86,0.844,0.7396,0.712336
10:21:02,30-Sep-21,0.86,0.844,0.7396,0.712336
10:21:02,30-Sep-21,0.8555,0.844,0.73188025,0.712336
10:21:02,30-Sep-21,0.8555,0.844,0.73188025,0.712336
10:21:02,30-Sep-21,0.8405,0.843,0.70644025,0.710649
10:21:02,30-Sep-21,0.836,0.843,0.698896,0.710649
10:21:02,30-Sep-21,0.836,0.843,0.698896,0.710649
10:21:02,30-Sep-21,0.831,0.843,0.690561,0.710649
10:21:02,30-Sep-21,0.831,0.843,0.690561,0.710649
10:21:02,30-Sep-21,0.826,0.843,0.682276,0.710649
10:21:02,30-Sep-21,0.826,0.843,0.682276,0.710649
10:21:02,30-Sep-21,0.8405,0.843,0.70644025,0.710649
10:21:02,30-Sep-21,0.8455,0.843,0.71487025,0.710649
10:21:02,30-Sep-21,0.8455,0.844,0.71487025,0.712336
10:21:02,30-Sep-21,0.86,0.844,0.7396,0.712336
10:21:02,30-Sep-21,0.86,0.844,0.7396,0.712336
10:21:02,30-Sep-21,0.86,0.844,0.7396,0.712336
10:21:02,30-Sep-21,0.8505,0.844,0.72335025,0.712336
10:21:02,30-Sep-21,0.8505,0.844,0.72335025,0.712336
10:21:02,30-Sep-21,0.8505,0.845,0.72335025,0.714025
10:21:02,30-Sep-21,0.836,0.845,0.698896,0.714025
10:21:02,30-Sep-21,0.836,0.845,0.698896,0.714025
10:21:02,30-Sep-21,0.836,0.846,0.698896,0.715716
10:21:03,30-Sep-21,0.836,0.846,0.698896,0.715716
10:21:03,30-Sep-21,0.831,0.847,0.690561,0.717409
10:21:03,30-Sep-21,0.831,0.847,0.690561,0.717409
10:21:03,30-Sep-21,0.831,0.847,0.690561,0.717409
10:21:03,30-Sep-21,0.836,0.848,0.698896,0.719104
10:21:03,30-Sep-21,0.8555,0.848,0.73188025,0.719104
10:21:03,30-Sep-21,0.8555,0.849,0.73188025,0.720801
10:21:03,30-Sep-21,0.8555,0.85,0.73188025,0.7225
10:21:03,30-Sep-21,0.86,0.85,0.7396,0.7225
10:21:03,30-Sep-21,0.86,0.851,0.7396,0.724201
10:21:03,30-Sep-21,0.865,0.851,0.748225,0.724201
10:21:03,30-Sep-21,0.865,0.852,0.748225,0.725904
10:21:03,30-Sep-21,0.865,0.852,0.748225,0.725904
10:21:03,30-Sep-21,0.865,0.853,0.748225,0.727609
10:21:03,30-Sep-21,0.86,0.853,0.7396,0.727609
10:21:03,30-Sep-21,0.8555,0.854,0.73188025,0.729316
10:21:03,30-Sep-21,0.8555,0.854,0.73188025,0.729316
10:21:03,30-Sep-21,0.8455,0.855,0.71487025,0.731025
10:21:03,30-Sep-21,0.8455,0.855,0.71487025,0.731025
10:21:03,30-Sep-21,0.8455,0.856,0.71487025,0.732736
10:21:03,30-Sep-21,0.8405,0.856,0.70644025,0.732736
10:21:03,30-Sep-21,0.8405,0.857,0.70644025,0.734449
10:21:03,30-Sep-21,0.8455,0.857,0.71487025,0.734449
10:21:03,30-Sep-21,0.8455,0.858,0.71487025,0.736164
10:21:03,30-Sep-21,0.8555,0.858,0.73188025,0.736164
10:21:03,30-Sep-21,0.8555,0.859,0.73188025,0.737881
10:21:03,30-Sep-21,0.87,0.859,0.7569,0.737881
10:21:03,30-Sep-21,0.875,0.859,0.765625,0.737881
10:21:03,30-Sep-21,0.875,0.86,0.765625,0.7396
10:21:03,30-Sep-21,0.87,0.86,0.7569,0.7396
10:21:03,30-Sep-21,0.87,0.86,0.7569,0.7396
10:21:03,30-Sep-21,0.87,0.861,0.7569,0.741321
10:21:03,30-Sep-21,0.87,0.861,0.7569,0.741321
10:21:03,30-Sep-21,0.87,0.861,0.7569,0.741321
10:21:03,30-Sep-21,0.86,0.861,0.7396,0.741321
10:21:03,30-Sep-21,0.8555,0.861,0.73188025,0.741321
10:21:03,30-Sep-21,0.8555,0.862,0.73188025,0.743044
10:21:03,30-Sep-21,0.8505,0.862,0.72335025,0.743044
10:21:03,30-Sep-21,0.8505,0.862,0.72335025,0.743044
10:21:03,30-Sep-21,0.8455,0.862,0.71487025,0.743044
10:21:03,30-Sep-21,0.8455,0.862,0.71487025,0.743044
10:21:03,30-Sep-21,0.8455,0.862,0.71487025,0.743044
10:21:03,30-Sep-21,0.86,0.862,0.7396,0.743044
10:21:03,30-Sep-21,0.87,0.862,0.7569,0.743044
10:21:03,30-Sep-21,0.88,0.862,0.7744,0.743044
10:21:03,30-Sep-21,0.88,0.862,0.7744,0.743044
10:21:03,30-Sep-21,0.875,0.862,0.765625,0.743044
10:21:03,30-Sep-21,0.87,0.862,0.7569,0.743044
10:21:03,30-Sep-21,0.87,0.861,0.7569,0.741321
10:21:03,30-Sep-21,0.87,0.861,0.7569,0.741321
10:21:03,30-Sep-21,0.8505,0.861,0.72335025,0.741321
10:21:03,30-Sep-21,0.8505,0.861,0.72335025,0.741321
10:21:03,30-Sep-21,0.8505,0.861,0.72335025,0.741321
10:21:03,30-Sep-21,0.8455,0.861,0.71487025,0.741321
10:21:03,30-Sep-21,0.8455,0.86,0.71487025,0.7396
10:21:03,30-Sep-21,0.8455,0.86,0.71487025,0.7396
10:21:03,30-Sep-21,0.87,0.86,0.7569,0.7396
10:21:03,30-Sep-21,0.87,0.86,0.7569,0.7396
10:21:03,30-Sep-21,0.87,0.859,0.7569,0.737881
10:21:03,30-Sep-21,0.87,0.859,0.7569,0.737881
10:21:03,30-Sep-21,0.87,0.859,0.7569,0.737881
10:21:03,30-Sep-21,0.87,0.858,0.7569,0.736164
10:21:03,30-Sep-21,0.87,0.858,0.7569,0.736164
10:21:03,30-Sep-21,0.8555,0.858,0.73188025,0.736164
10:21:03,30-Sep-21,0.8555,0.858,0.73188025,0.736164
10:21:03,30-Sep-21,0.8505,0.857,0.72335025,0.734449
10:21:03,30-Sep-21,0.8405,0.857,0.70644025,0.734449
10:21:03,30-Sep-21,0.8405,0.857,0.70644025,0.734449
10:21:03,30-Sep-21,0.8405,0.856,0.70644025,0.732736
10:21:03,30-Sep-21,0.8405,0.856,0.70644025,0.732736
10:21:03,30-Sep-21,0.8455,0.856,0.71487025,0.732736
10:21:03,30-Sep-21,0.8505,0.856,0.72335025,0.732736
10:21:03,30-Sep-21,0.865,0.855,0.748225,0.731025
10:21:03,30-Sep-21,0.87,0.855,0.7569,0.731025
10:21:03,30-Sep-21,0.87,0.855,0.7569,0.731025
10:21:03,30-Sep-21,0.87,0.855,0.7569,0.731025
10:21:03,30-Sep-21,0.87,0.854,0.7569,0.729316
10:21:03,30-Sep-21,0.865,0.854,0.748225,0.729316
10:21:03,30-Sep-21,0.86,0.854,0.7396,0.729316
10:21:03,30-Sep-21,0.8505,0.854,0.72335025,0.729316
10:21:03,30-Sep-21,0.8505,0.853,0.72335025,0.727609
10:21:03,30-Sep-21,0.8505,0.853,0.72335025,0.727609
10:21:03,30-Sep-21,0.8455,0.853,0.71487025,0.727609
10:21:03,30-Sep-21,0.8455,0.853,0.71487025,0.727609
10:21:03,30-Sep-21,0.8455,0.852,0.71487025,0.725904
10:21:04,30-Sep-21,0.8405,0.852,0.70644025,0.725904
10:21:04,30-Sep-21,0.8405,0.852,0.70644025,0.725904
10:21:04,30-Sep-21,0.8405,0.852,0.70644025,0.725904
10:21:04,30-Sep-21,0.8405,0.852,0.70644025,0.725904
10:21:04,30-Sep-21,0.8505,0.852,0.72335025,0.725904
10:21:04,30-Sep-21,0.8555,0.852,0.73188025,0.725904
10:21:04,30-Sep-21,0.8555,0.851,0.73188025,0.724201
10:21:04,30-Sep-21,0.8555,0.851,0.73188025,0.724201
10:21:04,30-Sep-21,0.86,0.851,0.7396,0.724201
10:21:04,30-Sep-21,0.865,0.851,0.748225,0.724201
10:21:04,30-Sep-21,0.865,0.851,0.748225,0.724201
10:21:04,30-Sep-21,0.865,0.851,0.748225,0.724201
10:21:04,30-Sep-21,0.865,0.851,0.748225,0.724201
10:21:04,30-Sep-21,0.8555,0.851,0.73188025,0.724201
10:21:04,30-Sep-21,0.8555,0.85,0.73188025,0.7225
10:21:04,30-Sep-21,0.8505,0.85,0.72335025,0.7225
10:21:04,30-Sep-21,0.836,0.85,0.698896,0.7225
10:21:04,30-Sep-21,0.836,0.85,0.698896,0.7225
10:21:04,30-Sep-21,0.836,0.85,0.698896,0.7225
10:21:04,30-Sep-21,0.836,0.85,0.698896,0.7225
10:21:04,30-Sep-21,0.836,0.85,0.698896,0.7225
10:21:04,30-Sep-21,0.836,0.85,0.698896,0.7225
10:21:04,30-Sep-21,0.836,0.85,0.698896,0.7225
10:21:04,30-Sep-21,0.8405,0.85,0.70644025,0.7225
10:21:04,30-Sep-21,0.86,0.85,0.7396,0.7225
10:21:04,30-Sep-21,0.865,0.85,0.748225,0.7225
10:21:04,30-Sep-21,0.865,0.85,0.748225,0.7225
10:21:04,30-Sep-21,0.865,0.85,0.748225,0.7225
10:21:04,30-Sep-21,0.865,0.849,0.748225,0.720801
10:21:04,30-Sep-21,0.865,0.849,0.748225,0.720801
10:21:04,30-Sep-21,0.86,0.849,0.7396,0.720801
10:21:04,30-Sep-21,0.8505,0.849,0.72335025,0.720801
10:21:04,30-Sep-21,0.8455,0.849,0.71487025,0.720801
10:21:04,30-Sep-21,0.836,0.849,0.698896,0.720801
10:21:04,30-Sep-21,0.836,0.849,0.698896,0.720801
10:21:04,30-Sep-21,0.836,0.849,0.698896,0.720801
10:21:04,30-Sep-21,0.836,0.849,0.698896,0.720801
10:21:04,30-Sep-21,0.836,0.849,0.698896,0.720801
10:21:04,30-Sep-21,0.8455,0.849,0.71487025,0.720801
10:21:04,30-Sep-21,0.8555,0.849,0.73188025,0.720801
10:21:04,30-Sep-21,0.865,0.849,0.748225,0.720801
10:21:04,30-Sep-21,0.865,0.849,0.748225,0.720801
10:21:04,30-Sep-21,0.865,0.849,0.748225,0.720801
10:21:04,30-Sep-21,0.8555,0.849,0.73188025,0.720801
10:21:04,30-Sep-21,0.8555,0.849,0.73188025,0.720801
10:21:04,30-Sep-21,0.8555,0.849,0.73188025,0.720801
10:21:04,30-Sep-21,0.8405,0.849,0.70644025,0.720801
10:21:04,30-Sep-21,0.8405,0.849,0.70644025,0.720801
10:21:04,30-Sep-21,0.8405,0.849,0.70644025,0.720801
10:21:04,30-Sep-21,0.8405,0.849,0.70644025,0.720801
10:21:04,30-Sep-21,0.836,0.849,0.698896,0.720801
10:21:04,30-Sep-21,0.836,0.849,0.698896,0.720801
10:21:04,30-Sep-21,0.836,0.849,0.698896,0.720801
10:21:04,30-Sep-21,0.836,0.85,0.698896,0.7225
10:21:04,30-Sep-21,0.836,0.85,0.698896,0.7225
10:21:04,30-Sep-21,0.86,0.85,0.7396,0.7225
10:21:04,30-Sep-21,0.86,0.85,0.7396,0.7225
10:21:04,30-Sep-21,0.86,0.85,0.7396,0.7225
10:21:04,30-Sep-21,0.86,0.85,0.7396,0.7225
10:21:04,30-Sep-21,0.865,0.85,0.748225,0.7225
10:21:04,30-Sep-21,0.865,0.851,0.748225,0.724201
10:21:04,30-Sep-21,0.865,0.851,0.748225,0.724201
10:21:04,30-Sep-21,0.8555,0.851,0.73188025,0.724201
10:21:04,30-Sep-21,0.8555,0.851,0.73188025,0.724201
10:21:04,30-Sep-21,0.8555,0.851,0.73188025,0.724201
10:21:04,30-Sep-21,0.8505,0.851,0.72335025,0.724201
10:21:04,30-Sep-21,0.8455,0.852,0.71487025,0.725904
10:21:04,30-Sep-21,0.8405,0.852,0.70644025,0.725904
10:21:04,30-Sep-21,0.8405,0.852,0.70644025,0.725904
10:21:04,30-Sep-21,0.836,0.852,0.698896,0.725904
10:21:04,30-Sep-21,0.836,0.852,0.698896,0.725904
10:21:04,30-Sep-21,0.836,0.852,0.698896,0.725904
10:21:04,30-Sep-21,0.8405,0.852,0.70644025,0.725904
10:21:04,30-Sep-21,0.8505,0.853,0.72335025,0.727609
10:21:04,30-Sep-21,0.865,0.853,0.748225,0.727609
10:21:04,30-Sep-21,0.865,0.853,0.748225,0.727609
10:21:04,30-Sep-21,0.87,0.853,0.7569,0.727609
10:21:04,30-Sep-21,0.87,0.853,0.7569,0.727609
10:21:04,30-Sep-21,0.87,0.853,0.7569,0.727609
10:21:04,30-Sep-21,0.865,0.853,0.748225,0.727609
10:21:04,30-Sep-21,0.86,0.853,0.7396,0.727609
10:21:04,30-Sep-21,0.86,0.853,0.7396,0.727609
10:21:04,30-Sep-21,0.86,0.853,0.7396,0.727609
10:21:04,30-Sep-21,0.8455,0.854,0.71487025,0.729316
10:21:04,30-Sep-21,0.8455,0.854,0.71487025,0.729316
10:21:04,30-Sep-21,0.8455,0.854,0.71487025,0.729316
10:21:04,30-Sep-21,0.8405,0.854,0.70644025,0.729316
10:21:04,30-Sep-21,0.836,0.854,0.698896,0.729316
10:21:05,30-Sep-21,0.836,0.854,0.698896,0.729316
10:21:05,30-Sep-21,0.836,0.854,0.698896,0.729316
10:21:05,30-Sep-21,0.8505,0.854,0.72335025,0.729316
10:21:05,30-Sep-21,0.8505,0.854,0.72335025,0.729316
10:21:05,30-Sep-21,0.86,0.854,0.7396,0.729316
10:21:05,30-Sep-21,0.86,0.855,0.7396,0.731025
10:21:05,30-Sep-21,0.86,0.855,0.7396,0.731025
10:21:05,30-Sep-21,0.87,0.855,0.7569,0.731025
10:21:05,30-Sep-21,0.87,0.855,0.7569,0.731025
10:21:05,30-Sep-21,0.87,0.855,0.7569,0.731025
10:21:05,30-Sep-21,0.87,0.855,0.7569,0.731025
10:21:05,30-Sep-21,0.86,0.855,0.7396,0.731025
10:21:05,30-Sep-21,0.86,0.855,0.7396,0.731025
10:21:05,30-Sep-21,0.86,0.856,0.7396,0.732736
10:21:05,30-Sep-21,0.8555,0.856,0.73188025,0.732736
10:21:05,30-Sep-21,0.8405,0.856,0.70644025,0.732736
10:21:05,30-Sep-21,0.8405,0.856,0.70644025,0.732736
10:21:05,30-Sep-21,0.8405,0.856,0.70644025,0.732736
10:21:05,30-Sep-21,0.8405,0.856,0.70644025,0.732736
10:21:05,30-Sep-21,0.8405,0.857,0.70644025,0.734449
10:21:05,30-Sep-21,0.8455,0.857,0.71487025,0.734449
10:21:05,30-Sep-21,0.8455,0.857,0.71487025,0.734449
10:21:05,30-Sep-21,0.865,0.857,0.748225,0.734449
10:21:05,30-Sep-21,0.865,0.857,0.748225,0.734449
10:21:05,30-Sep-21,0.87,0.857,0.7569,0.734449
10:21:05,30-Sep-21,0.875,0.858,0.765625,0.736164
10:21:05,30-Sep-21,0.875,0.858,0.765625,0.736164
10:21:05,30-Sep-21,0.87,0.858,0.7569,0.736164
10:21:05,30-Sep-21,0.87,0.858,0.7569,0.736164
10:21:05,30-Sep-21,0.87,0.858,0.7569,0.736164
10:21:05,30-Sep-21,0.87,0.858,0.7569,0.736164
10:21:05,30-Sep-21,0.8555,0.858,0.73188025,0.736164
10:21:05,30-Sep-21,0.8555,0.858,0.73188025,0.736164
10:21:05,30-Sep-21,0.8555,0.859,0.73188025,0.737881
10:21:05,30-Sep-21,0.8405,0.859,0.70644025,0.737881
10:21:05,30-Sep-21,0.8405,0.859,0.70644025,0.737881
10:21:05,30-Sep-21,0.8405,0.859,0.70644025,0.737881
10:21:05,30-Sep-21,0.8405,0.859,0.70644025,0.737881
10:21:05,30-Sep-21,0.8505,0.859,0.72335025,0.737881
10:21:05,30-Sep-21,0.8505,0.859,0.72335025,0.737881
10:21:05,30-Sep-21,0.8555,0.859,0.73188025,0.737881
10:21:05,30-Sep-21,0.8555,0.859,0.73188025,0.737881
10:21:05,30-Sep-21,0.86,0.859,0.7396,0.737881
10:21:05,30-Sep-21,0.875,0.859,0.765625,0.737881
10:21:05,30-Sep-21,0.875,0.859,0.765625,0.737881
10:21:05,30-Sep-21,0.875,0.859,0.765625,0.737881
10:21:05,30-Sep-21,0.875,0.859,0.765625,0.737881
10:21:05,30-Sep-21,0.875,0.859,0.765625,0.737881
10:21:05,30-Sep-21,0.87,0.859,0.7569,0.737881
10:21:05,30-Sep-21,0.86,0.859,0.7396,0.737881
10:21:05,30-Sep-21,0.86,0.858,0.7396,0.736164
10:21:05,30-Sep-21,0.8505,0.858,0.72335025,0.736164
10:21:05,30-Sep-21,0.8505,0.858,0.72335025,0.736164
10:21:05,30-Sep-21,0.8505,0.858,0.72335025,0.736164
10:21:05,30-Sep-21,0.8455,0.857,0.71487025,0.734449
10:21:05,30-Sep-21,0.8405,0.857,0.70644025,0.734449
10:21:05,30-Sep-21,0.8405,0.857,0.70644025,0.734449
10:21:05,30-Sep-21,0.8455,0.857,0.71487025,0.734449
10:21:05,30-Sep-21,0.8555,0.856,0.73188025,0.732736
10:21:05,30-Sep-21,0.865,0.856,0.748225,0.732736
10:21:05,30-Sep-21,0.865,0.855,0.748225,0.731025
10:21:05,30-Sep-21,0.865,0.855,0.748225,0.731025
10:21:05,30-Sep-21,0.865,0.855,0.748225,0.731025
10:21:05,30-Sep-21,0.87,0.854,0.7569,0.729316
10:21:05,30-Sep-21,0.865,0.854,0.748225,0.729316
10:21:05,30-Sep-21,0.8555,0.853,0.73188025,0.727609
10:21:05,30-Sep-21,0.8555,0.853,0.73188025,0.727609
10:21:05,30-Sep-21,0.8505,0.852,0.72335025,0.725904
10:21:05,30-Sep-21,0.8505,0.852,0.72335025,0.725904
10:21:05,30-Sep-21,0.8405,0.851,0.70644025,0.724201
10:21:05,30-Sep-21,0.836,0.851,0.698896,0.724201
10:21:05,30-Sep-21,0.836,0.85,0.698896,0.7225
10:21:05,30-Sep-21,0.836,0.85,0.698896,0.7225
10:21:05,30-Sep-21,0.836,0.849,0.698896,0.720801
10:21:05,30-Sep-21,0.8455,0.849,0.71487025,0.720801
10:21:05,30-Sep-21,0.8455,0.848,0.71487025,0.719104
10:21:05,30-Sep-21,0.86,0.848,0.7396,0.719104
10:21:05,30-Sep-21,0.865,0.847,0.748225,0.717409
10:21:05,30-Sep-21,0.86,0.847,0.7396,0.717409
10:21:05,30-Sep-21,0.86,0.846,0.7396,0.715716
10:21:05,30-Sep-21,0.8555,0.845,0.73188025,0.714025
10:21:05,30-Sep-21,0.8555,0.845,0.73188025,0.714025
10:21:05,30-Sep-21,0.8455,0.844,0.71487025,0.712336
10:21:05,30-Sep-21,0.8405,0.843,0.70644025,0.710649
10:21:05,30-Sep-21,0.826,0.843,0.682276,0.710649
10:21:05,30-Sep-21,0.826,0.842,0.682276,0.708964
10:21:05,30-Sep-21,0.826,0.841,0.682276,0.707281
10:21:05,30-Sep-21,0.826,0.841,0.682276,0.707281
10:21:06,30-Sep-21,0.826,0.84,0.682276,0.7056
10:21:06,30-Sep-21,0.836,0.839,0.698896,0.703921
10:21:06,30-Sep-21,0.8405,0.839,0.70644025,0.703921
10:21:06,30-Sep-21,0.8405,0.838,0.70644025,0.702244
10:21:06,30-Sep-21,0.8505,0.837,0.72335025,0.700569
10:21:06,30-Sep-21,0.8505,0.836,0.72335025,0.698896
10:21:06,30-Sep-21,0.8505,0.835,0.72335025,0.697225
10:21:06,30-Sep-21,0.8505,0.834,0.72335025,0.695556
10:21:06,30-Sep-21,0.8405,0.834,0.70644025,0.695556
10:21:06,30-Sep-21,0.8405,0.833,0.70644025,0.693889
10:21:06,30-Sep-21,0.836,0.832,0.698896,0.692224
10:21:06,30-Sep-21,0.821,0.831,0.674041,0.690561
10:21:06,30-Sep-21,0.816,0.83,0.665856,0.6889
10:21:06,30-Sep-21,0.816,0.829,0.665856,0.687241
10:21:06,30-Sep-21,0.816,0.828,0.665856,0.685584
10:21:06,30-Sep-21,0.8115,0.827,0.65853225,0.683929
10:21:06,30-Sep-21,0.816,0.826,0.665856,0.682276
10:21:06,30-Sep-21,0.816,0.826,0.665856,0.682276
10:21:06,30-Sep-21,0.836,0.825,0.698896,0.680625
10:21:06,30-Sep-21,0.836,0.824,0.698896,0.678976
10:21:06,30-Sep-21,0.836,0.823,0.698896,0.677329
10:21:06,30-Sep-21,0.836,0.822,0.698896,0.675684
10:21:06,30-Sep-21,0.836,0.821,0.698896,0.674041
10:21:06,30-Sep-21,0.836,0.821,0.698896,0.674041
10:21:06,30-Sep-21,0.836,0.82,0.698896,0.6724
10:21:06,30-Sep-21,0.826,0.819,0.682276,0.670761
10:21:06,30-Sep-21,0.826,0.819,0.682276,0.670761
10:21:06,30-Sep-21,0.821,0.818,0.674041,0.669124
10:21:06,30-Sep-21,0.821,0.818,0.674041,0.669124
10:21:06,30-Sep-21,0.816,0.818,0.665856,0.669124
10:21:06,30-Sep-21,0.816,0.817,0.665856,0.667489
10:21:06,30-Sep-21,0.8065,0.817,0.65044225,0.667489
10:21:06,30-Sep-21,0.8065,0.817,0.65044225,0.667489
10:21:06,30-Sep-21,0.8065,0.818,0.65044225,0.669124
10:21:06,30-Sep-21,0.8115,0.818,0.65853225,0.669124
10:21:06,30-Sep-21,0.816,0.819,0.665856,0.670761
10:21:06,30-Sep-21,0.816,0.819,0.665856,0.670761
10:21:06,30-Sep-21,0.816,0.82,0.665856,0.6724
10:21:06,30-Sep-21,0.831,0.821,0.690561,0.674041
10:21:06,30-Sep-21,0.831,0.822,0.690561,0.675684
10:21:06,30-Sep-21,0.831,0.823,0.690561,0.677329
10:21:06,30-Sep-21,0.831,0.825,0.690561,0.680625
10:21:06,30-Sep-21,0.826,0.827,0.682276,0.683929
10:21:06,30-Sep-21,0.821,0.828,0.674041,0.685584
10:21:06,30-Sep-21,0.821,0.83,0.674041,0.6889
10:21:06,30-Sep-21,0.8115,0.832,0.65853225,0.692224
10:21:06,30-Sep-21,0.8065,0.835,0.65044225,0.697225
10:21:06,30-Sep-21,0.8065,0.837,0.65044225,0.700569
10:21:06,30-Sep-21,0.8065,0.839,0.65044225,0.703921
10:21:06,30-Sep-21,0.8115,0.842,0.65853225,0.708964
10:21:06,30-Sep-21,0.8115,0.845,0.65853225,0.714025
10:21:06,30-Sep-21,0.8405,0.847,0.70644025,0.717409
10:21:06,30-Sep-21,0.8505,0.85,0.72335025,0.7225
10:21:06,30-Sep-21,0.87,0.853,0.7569,0.727609
10:21:06,30-Sep-21,0.87,0.855,0.7569,0.731025
10:21:06,30-Sep-21,0.87,0.858,0.7569,0.736164
10:21:06,30-Sep-21,0.8895,0.861,0.79121025,0.741321
10:21:06,30-Sep-21,0.8895,0.863,0.79121025,0.744769
10:21:06,30-Sep-21,0.8845,0.866,0.78234025,0.749956
10:21:06,30-Sep-21,0.8845,0.868,0.78234025,0.753424
10:21:06,30-Sep-21,0.8845,0.87,0.78234025,0.7569
10:21:06,30-Sep-21,0.8845,0.872,0.78234025,0.760384
10:21:06,30-Sep-21,0.875,0.874,0.765625,0.763876
10:21:06,30-Sep-21,0.875,0.875,0.765625,0.765625
10:21:06,30-Sep-21,0.875,0.877,0.765625,0.769129
10:21:06,30-Sep-21,0.88,0.878,0.7744,0.770884
10:21:06,30-Sep-21,0.88,0.879,0.7744,0.772641
10:21:06,30-Sep-21,0.8995,0.88,0.80910025,0.7744
10:21:06,30-Sep-21,0.8995,0.881,0.80910025,0.776161
10:21:06,30-Sep-21,0.8945,0.881,0.80013025,0.776161
10:21:06,30-Sep-21,0.8945,0.882,0.80013025,0.777924
10:21:06,30-Sep-21,0.8895,0.882,0.79121025,0.777924
10:21:06,30-Sep-21,0.8845,0.882,0.78234025,0.777924
10:21:06,30-Sep-21,0.8845,0.881,0.78234025,0.776161
10:21:06,30-Sep-21,0.87,0.881,0.7569,0.776161
10:21:06,30-Sep-21,0.87,0.88,0.7569,0.7744
10:21:06,30-Sep-21,0.865,0.879,0.748225,0.772641
10:21:06,30-Sep-21,0.865,0.878,0.748225,0.770884
10:21:06,30-Sep-21,0.8555,0.877,0.73188025,0.769129
10:21:06,30-Sep-21,0.8555,0.876,0.73188025,0.767376
10:21:06,30-Sep-21,0.8555,0.875,0.73188025,0.765625
10:21:06,30-Sep-21,0.86,0.873,0.7396,0.762129
10:21:06,30-Sep-21,0.86,0.872,0.7396,0.760384
10:21:07,30-Sep-21,0.86,0.87,0.7396,0.7569
10:21:07,30-Sep-21,0.87,0.868,0.7569,0.753424
10:21:07,30-Sep-21,0.87,0.866,0.7569,0.749956
10:21:07,30-Sep-21,0.88,0.864,0.7744,0.746496
10:21:07,30-Sep-21,0.875,0.862,0.765625,0.743044
10:21:07,30-Sep-21,0.875,0.86,0.765625,0.7396
10:21:07,30-Sep-21,0.87,0.857,0.7569,0.734449
10:21:07,30-Sep-21,0.87,0.855,0.7569,0.731025
10:21:07,30-Sep-21,0.86,0.852,0.7396,0.725904
10:21:07,30-Sep-21,0.86,0.85,0.7396,0.7225
10:21:07,30-Sep-21,0.8455,0.847,0.71487025,0.717409
10:21:07,30-Sep-21,0.8405,0.844,0.70644025,0.712336
10:21:07,30-Sep-21,0.8405,0.842,0.70644025,0.708964
10:21:07,30-Sep-21,0.826,0.839,0.682276,0.703921
10:21:07,30-Sep-21,0.821,0.836,0.674041,0.698896
10:21:07,30-Sep-21,0.821,0.833,0.674041,0.693889
10:21:07,30-Sep-21,0.821,0.831,0.674041,0.690561
10:21:07,30-Sep-21,0.821,0.828,0.674041,0.685584
10:21:07,30-Sep-21,0.836,0.825,0.698896,0.680625
10:21:07,30-Sep-21,0.831,0.822,0.690561,0.675684
10:21:07,30-Sep-21,0.831,0.82,0.690561,0.6724
10:21:07,30-Sep-21,0.826,0.817,0.682276,0.667489
10:21:07,30-Sep-21,0.826,0.814,0.682276,0.662596
10:21:07,30-Sep-21,0.826,0.812,0.682276,0.659344
10:21:07,30-Sep-21,0.821,0.809,0.674041,0.654481
10:21:07,30-Sep-21,0.8065,0.807,0.65044225,0.651249
10:21:07,30-Sep-21,0.8065,0.805,0.65044225,0.648025
10:21:07,30-Sep-21,0.7965,0.802,0.63441225,0.643204
10:21:07,30-Sep-21,0.7965,0.8,0.63441225,0.64
10:21:07,30-Sep-21,0.787,0.798,0.619369,0.636804
10:21:07,30-Sep-21,0.787,0.796,0.619369,0.633616
10:21:07,30-Sep-21,0.777,0.795,0.603729,0.632025
10:21:07,30-Sep-21,0.772,0.793,0.595984,0.628849
10:21:07,30-Sep-21,0.772,0.791,0.595984,0.625681
10:21:07,30-Sep-21,0.782,0.79,0.611524,0.6241
10:21:07,30-Sep-21,0.787,0.789,0.619369,0.622521
10:21:07,30-Sep-21,0.787,0.788,0.619369,0.620944
10:21:07,30-Sep-21,0.787,0.787,0.619369,0.619369
10:21:07,30-Sep-21,0.7965,0.786,0.63441225,0.617796
10:21:07,30-Sep-21,0.7965,0.785,0.63441225,0.616225
10:21:07,30-Sep-21,0.8015,0.785,0.64240225,0.616225
10:21:07,30-Sep-21,0.792,0.784,0.627264,0.614656
10:21:07,30-Sep-21,0.792,0.784,0.627264,0.614656
10:21:07,30-Sep-21,0.792,0.784,0.627264,0.614656
10:21:07,30-Sep-21,0.792,0.784,0.627264,0.614656
10:21:07,30-Sep-21,0.792,0.784,0.627264,0.614656
10:21:07,30-Sep-21,0.782,0.784,0.611524,0.614656
10:21:07,30-Sep-21,0.777,0.784,0.603729,0.614656
10:21:07,30-Sep-21,0.777,0.784,0.603729,0.614656
10:21:07,30-Sep-21,0.772,0.785,0.595984,0.616225
10:21:07,30-Sep-21,0.772,0.785,0.595984,0.616225
10:21:07,30-Sep-21,0.772,0.786,0.595984,0.617796
10:21:07,30-Sep-21,0.772,0.787,0.595984,0.619369
10:21:07,30-Sep-21,0.772,0.787,0.595984,0.619369
10:21:07,30-Sep-21,0.772,0.788,0.595984,0.620944
10:21:07,30-Sep-21,0.792,0.789,0.627264,0.622521
10:21:07,30-Sep-21,0.7965,0.79,0.63441225,0.6241
10:21:07,30-Sep-21,0.7965,0.791,0.63441225,0.625681
10:21:07,30-Sep-21,0.8065,0.792,0.65044225,0.627264
10:21:07,30-Sep-21,0.8065,0.793,0.65044225,0.628849
10:21:07,30-Sep-21,0.8065,0.794,0.65044225,0.630436
10:21:07,30-Sep-21,0.8065,0.794,0.65044225,0.630436
10:21:07,30-Sep-21,0.8015,0.795,0.64240225,0.632025
10:21:07,30-Sep-21,0.8015,0.796,0.64240225,0.633616
10:21:07,30-Sep-21,0.8015,0.797,0.64240225,0.635209
10:21:07,30-Sep-21,0.7965,0.798,0.63441225,0.636804
10:21:07,30-Sep-21,0.7965,0.799,0.63441225,0.638401
10:21:07,30-Sep-21,0.787,0.799,0.619369,0.638401
10:21:07,30-Sep-21,0.787,0.8,0.619369,0.64
10:21:07,30-Sep-21,0.787,0.8,0.619369,0.64
10:21:07,30-Sep-21,0.787,0.801,0.619369,0.641601
10:21:07,30-Sep-21,0.792,0.801,0.627264,0.641601
10:21:07,30-Sep-21,0.792,0.801,0.627264,0.641601
10:21:07,30-Sep-21,0.7965,0.801,0.63441225,0.641601
10:21:07,30-Sep-21,0.816,0.802,0.665856,0.643204
10:21:07,30-Sep-21,0.816,0.802,0.665856,0.643204
10:21:07,30-Sep-21,0.816,0.801,0.665856,0.641601
10:21:07,30-Sep-21,0.821,0.801,0.674041,0.641601
10:21:07,30-Sep-21,0.821,0.801,0.674041,0.641601
10:21:07,30-Sep-21,0.816,0.801,0.665856,0.641601
10:21:07,30-Sep-21,0.8115,0.8,0.65853225,0.64
10:21:07,30-Sep-21,0.8115,0.8,0.65853225,0.64
10:21:07,30-Sep-21,0.8065,0.799,0.65044225,0.638401
10:21:07,30-Sep-21,0.7965,0.798,0.63441225,0.636804
10:21:07,30-Sep-21,0.7965,0.797,0.63441225,0.635209
10:21:07,30-Sep-21,0.7965,0.797,0.63441225,0.635209
10:21:07,30-Sep-21,0.787,0.796,0.619369,0.633616
10:21:07,30-Sep-21,0.787,0.795,0.619369,0.632025
10:21:07,30-Sep-21,0.777,0.794,0.603729,0.630436
10:21:07,30-Sep-21,0.777,0.793,0.603729,0.628849
10:21:07,30-Sep-21,0.777,0.792,0.603729,0.627264
10:21:07,30-Sep-21,0.782,0.791,0.611524,0.625681
10:21:07,30-Sep-21,0.782,0.79,0.611524,0.6241
10:21:07,30-Sep-21,0.787,0.789,0.619369,0.622521
10:21:08,30-Sep-21,0.787,0.788,0.619369,0.620944
10:21:08,30-Sep-21,0.7965,0.788,0.63441225,0.620944
10:21:08,30-Sep-21,0.7965,0.787,0.63441225,0.619369
10:21:08,30-Sep-21,0.7965,0.786,0.63441225,0.617796
10:21:08,30-Sep-21,0.792,0.785,0.627264,0.616225
10:21:08,30-Sep-21,0.792,0.785,0.627264,0.616225
10:21:08,30-Sep-21,0.792,0.784,0.627264,0.614656
10:21:08,30-Sep-21,0.782,0.783,0.611524,0.613089
10:21:08,30-Sep-21,0.782,0.783,0.611524,0.613089
10:21:08,30-Sep-21,0.782,0.783,0.611524,0.613089
10:21:08,30-Sep-21,0.772,0.782,0.595984,0.611524
10:21:08,30-Sep-21,0.772,0.782,0.595984,0.611524
10:21:08,30-Sep-21,0.7675,0.782,0.58905625,0.611524
10:21:08,30-Sep-21,0.7675,0.782,0.58905625,0.611524
10:21:08,30-Sep-21,0.7675,0.782,0.58905625,0.611524
10:21:08,30-Sep-21,0.7675,0.782,0.58905625,0.611524
10:21:08,30-Sep-21,0.7675,0.782,0.58905625,0.611524
10:21:08,30-Sep-21,0.7675,0.782,0.58905625,0.611524
10:21:08,30-Sep-21,0.787,0.782,0.619369,0.611524
10:21:08,30-Sep-21,0.787,0.782,0.619369,0.611524
10:21:08,30-Sep-21,0.7965,0.782,0.63441225,0.611524
10:21:08,30-Sep-21,0.7965,0.783,0.63441225,0.613089
10:21:08,30-Sep-21,0.7965,0.783,0.63441225,0.613089
10:21:08,30-Sep-21,0.7965,0.783,0.63441225,0.613089
10:21:08,30-Sep-21,0.7965,0.784,0.63441225,0.614656
10:21:08,30-Sep-21,0.7965,0.784,0.63441225,0.614656
10:21:08,30-Sep-21,0.7965,0.784,0.63441225,0.614656
10:21:08,30-Sep-21,0.787,0.785,0.619369,0.616225
10:21:08,30-Sep-21,0.787,0.785,0.619369,0.616225
10:21:08,30-Sep-21,0.782,0.785,0.611524,0.616225
10:21:08,30-Sep-21,0.782,0.786,0.611524,0.617796
10:21:08,30-Sep-21,0.772,0.786,0.595984,0.617796
10:21:08,30-Sep-21,0.772,0.786,0.595984,0.617796
10:21:08,30-Sep-21,0.772,0.787,0.595984,0.619369
10:21:08,30-Sep-21,0.772,0.787,0.595984,0.619369
10:21:08,30-Sep-21,0.777,0.787,0.603729,0.619369
10:21:08,30-Sep-21,0.782,0.787,0.611524,0.619369
10:21:08,30-Sep-21,0.8015,0.788,0.64240225,0.620944
10:21:08,30-Sep-21,0.8015,0.788,0.64240225,0.620944
10:21:08,30-Sep-21,0.8015,0.788,0.64240225,0.620944
10:21:08,30-Sep-21,0.8015,0.788,0.64240225,0.620944
10:21:08,30-Sep-21,0.8015,0.788,0.64240225,0.620944
10:21:08,30-Sep-21,0.8015,0.788,0.64240225,0.620944
10:21:08,30-Sep-21,0.8015,0.788,0.64240225,0.620944
10:21:08,30-Sep-21,0.7965,0.788,0.63441225,0.620944
10:21:08,30-Sep-21,0.792,0.788,0.627264,0.620944
10:21:08,30-Sep-21,0.792,0.788,0.627264,0.620944
10:21:08,30-Sep-21,0.777,0.788,0.603729,0.620944
10:21:08,30-Sep-21,0.777,0.788,0.603729,0.620944
10:21:08,30-Sep-21,0.777,0.788,0.603729,0.620944
10:21:08,30-Sep-21,0.777,0.788,0.603729,0.620944
10:21:08,30-Sep-21,0.772,0.788,0.595984,0.620944
10:21:08,30-Sep-21,0.772,0.788,0.595984,0.620944
10:21:08,30-Sep-21,0.772,0.788,0.595984,0.620944
10:21:08,30-Sep-21,0.772,0.788,0.595984,0.620944
10:21:08,30-Sep-21,0.787,0.788,0.619369,0.620944
10:21:08,30-Sep-21,0.787,0.788,0.619369,0.620944
10:21:08,30-Sep-21,0.787,0.788,0.619369,0.620944
10:21:08,30-Sep-21,0.792,0.788,0.627264,0.620944
10:21:08,30-Sep-21,0.7965,0.788,0.63441225,0.620944
10:21:08,30-Sep-21,0.7965,0.788,0.63441225,0.620944
10:21:08,30-Sep-21,0.7965,0.788,0.63441225,0.620944
10:21:08,30-Sep-21,0.8015,0.787,0.64240225,0.619369
10:21:08,30-Sep-21,0.8015,0.787,0.64240225,0.619369
10:21:08,30-Sep-21,0.8015,0.787,0.64240225,0.619369
10:21:08,30-Sep-21,0.792,0.787,0.627264,0.619369
10:21:08,30-Sep-21,0.792,0.787,0.627264,0.619369
10:21:08,30-Sep-21,0.792,0.786,0.627264,0.617796
10:21:08,30-Sep-21,0.787,0.786,0.619369,0.617796
10:21:08,30-Sep-21,0.777,0.786,0.603729,0.617796
10:21:08,30-Sep-21,0.777,0.786,0.603729,0.617796
10:21:08,30-Sep-21,0.772,0.785,0.595984,0.616225
10:21:08,30-Sep-21,0.772,0.785,0.595984,0.616225
10:21:08,30-Sep-21,0.772,0.785,0.595984,0.616225
10:21:08,30-Sep-21,0.777,0.784,0.603729,0.614656
10:21:08,30-Sep-21,0.777,0.784,0.603729,0.614656
10:21:08,30-Sep-21,0.782,0.784,0.611524,0.614656
10:21:08,30-Sep-21,0.7965,0.783,0.63441225,0.613089
10:21:08,30-Sep-21,0.7965,0.783,0.63441225,0.613089
10:21:08,30-Sep-21,0.7965,0.783,0.63441225,0.613089
10:21:08,30-Sep-21,0.792,0.782,0.627264,0.611524
10:21:08,30-Sep-21,0.792,0.782,0.627264,0.611524
10:21:08,30-Sep-21,0.792,0.782,0.627264,0.611524
10:21:08,30-Sep-21,0.777,0.781,0.603729,0.609961
10:21:08,30-Sep-21,0.772,0.781,0.595984,0.609961
10:21:08,30-Sep-21,0.7675,0.781,0.58905625,0.609961
10:21:08,30-Sep-21,0.7675,0.78,0.58905625,0.6084
10:21:08,30-Sep-21,0.7675,0.78,0.58905625,0.6084
10:21:08,30-Sep-21,0.7675,0.779,0.58905625,0.606841
10:21:08,30-Sep-21,0.7675,0.779,0.58905625,0.606841
10:21:08,30-Sep-21,0.782,0.779,0.611524,0.606841
10:21:08,30-Sep-21,0.787,0.778,0.619369,0.605284
10:21:08,30-Sep-21,0.787,0.778,0.619369,0.605284
10:21:09,30-Sep-21,0.792,0.778,0.627264,0.605284
10:21:09,30-Sep-21,0.792,0.777,0.627264,0.603729
10:21:09,30-Sep-21,0.792,0.777,0.627264,0.603729
10:21:09,30-Sep-21,0.787,0.777,0.619369,0.603729
10:21:09,30-Sep-21,0.782,0.777,0.611524,0.603729
10:21:09,30-Sep-21,0.7675,0.776,0.58905625,0.602176
10:21:09,30-Sep-21,0.7675,0.776,0.58905625,0.602176
10:21:09,30-Sep-21,0.7675,0.776,0.58905625,0.602176
10:21:09,30-Sep-21,0.7625,0.776,0.58140625,0.602176
10:21:09,30-Sep-21,0.7625,0.775,0.58140625,0.600625
10:21:09,30-Sep-21,0.7625,0.775,0.58140625,0.600625
10:21:09,30-Sep-21,0.7675,0.775,0.58905625,0.600625
10:21:09,30-Sep-21,0.782,0.775,0.611524,0.600625
10:21:09,30-Sep-21,0.782,0.775,0.611524,0.600625
10:21:09,30-Sep-21,0.787,0.774,0.619369,0.599076
10:21:09,30-Sep-21,0.787,0.774,0.619369,0.599076
10:21:09,30-Sep-21,0.782,0.774,0.611524,0.599076
10:21:09,30-Sep-21,0.772,0.774,0.595984,0.599076
10:21:09,30-Sep-21,0.772,0.774,0.595984,0.599076
10:21:09,30-Sep-21,0.772,0.774,0.595984,0.599076
10:21:09,30-Sep-21,0.772,0.774,0.595984,0.599076
10:21:09,30-Sep-21,0.7675,0.774,0.58905625,0.599076
10:21:09,30-Sep-21,0.7575,0.774,0.57380625,0.599076
10:21:09,30-Sep-21,0.7575,0.774,0.57380625,0.599076
10:21:09,30-Sep-21,0.7675,0.774,0.58905625,0.599076
10:21:09,30-Sep-21,0.772,0.774,0.595984,0.599076
10:21:09,30-Sep-21,0.772,0.774,0.595984,0.599076
10:21:09,30-Sep-21,0.787,0.774,0.619369,0.599076
10:21:09,30-Sep-21,0.787,0.774,0.619369,0.599076
10:21:09,30-Sep-21,0.787,0.774,0.619369,0.599076
10:21:09,30-Sep-21,0.787,0.774,0.619369,0.599076
10:21:09,30-Sep-21,0.782,0.774,0.611524,0.599076
10:21:09,30-Sep-21,0.782,0.774,0.611524,0.599076
10:21:09,30-Sep-21,0.777,0.774,0.603729,0.599076
10:21:09,30-Sep-21,0.7675,0.774,0.58905625,0.599076
10:21:09,30-Sep-21,0.7675,0.774,0.58905625,0.599076
10:21:09,30-Sep-21,0.7625,0.774,0.58140625,0.599076
10:21:09,30-Sep-21,0.7625,0.774,0.58140625,0.599076
10:21:09,30-Sep-21,0.7625,0.774,0.58140625,0.599076
10:21:09,30-Sep-21,0.7625,0.774,0.58140625,0.599076
10:21:09,30-Sep-21,0.777,0.774,0.603729,0.599076
10:21:09,30-Sep-21,0.782,0.774,0.611524,0.599076
10:21:09,30-Sep-21,0.782,0.774,0.611524,0.599076
10:21:09,30-Sep-21,0.787,0.774,0.619369,0.599076
10:21:09,30-Sep-21,0.787,0.774,0.619369,0.599076
10:21:09,30-Sep-21,0.787,0.774,0.619369,0.599076
10:21:09,30-Sep-21,0.782,0.773,0.611524,0.597529
10:21:09,30-Sep-21,0.772,0.773,0.595984,0.597529
10:21:09,30-Sep-21,0.772,0.773,0.595984,0.597529
10:21:09,30-Sep-21,0.7675,0.773,0.58905625,0.597529
10:21:09,30-Sep-21,0.7575,0.773,0.57380625,0.597529
10:21:09,30-Sep-21,0.7575,0.773,0.57380625,0.597529
10:21:09,30-Sep-21,0.7575,0.773,0.57380625,0.597529
10:21:09,30-Sep-21,0.7575,0.773,0.57380625,0.597529
10:21:09,30-Sep-21,0.7625,0.773,0.58140625,0.597529
10:21:09,30-Sep-21,0.7675,0.773,0.58905625,0.597529
10:21:09,30-Sep-21,0.782,0.773,0.611524,0.597529
10:21:09,30-Sep-21,0.782,0.773,0.611524,0.597529
10:21:09,30-Sep-21,0.787,0.773,0.619369,0.597529
10:21:09,30-Sep-21,0.787,0.773,0.619369,0.597529
10:21:09,30-Sep-21,0.782,0.773,0.611524,0.597529
10:21:09,30-Sep-21,0.782,0.773,0.611524,0.597529
10:21:09,30-Sep-21,0.777,0.773,0.603729,0.597529
10:21:09,30-Sep-21,0.777,0.773,0.603729,0.597529
10:21:09,30-Sep-21,0.777,0.773,0.603729,0.597529
10:21:09,30-Sep-21,0.777,0.773,0.603729,0.597529
10:21:09,30-Sep-21,0.7675,0.773,0.58905625,0.597529
10:21:09,30-Sep-21,0.7675,0.773,0.58905625,0.597529
10:21:09,30-Sep-21,0.7675,0.773,0.58905625,0.597529
10:21:09,30-Sep-21,0.7675,0.773,0.58905625,0.597529
10:21:09,30-Sep-21,0.7575,0.773,0.57380625,0.597529
10:21:09,30-Sep-21,0.7575,0.773,0.57380625,0.597529
10:21:09,30-Sep-21,0.7575,0.773,0.57380625,0.597529
10:21:09,30-Sep-21,0.7675,0.773,0.58905625,0.597529
10:21:09,30-Sep-21,0.7675,0.773,0.58905625,0.597529
10:21:09,30-Sep-21,0.7675,0.773,0.58905625,0.597529
10:21:09,30-Sep-21,0.777,0.773,0.603729,0.597529
10:21:09,30-Sep-21,0.777,0.773,0.603729,0.597529
10:21:09,30-Sep-21,0.782,0.773,0.611524,0.597529
10:21:09,30-Sep-21,0.787,0.773,0.619369,0.597529
10:21:09,30-Sep-21,0.787,0.773,0.619369,0.597529
10:21:10,30-Sep-21,0.787,0.773,0.619369,0.597529
10:21:10,30-Sep-21,0.787,0.773,0.619369,0.597529
10:21:10,30-Sep-21,0.787,0.773,0.619369,0.597529
10:21:10,30-Sep-21,0.777,0.773,0.603729,0.597529
10:21:10,30-Sep-21,0.777,0.773,0.603729,0.597529
10:21:10,30-Sep-21,0.777,0.773,0.603729,0.597529
10:21:10,30-Sep-21,0.7625,0.773,0.58140625,0.597529
10:21:10,30-Sep-21,0.7625,0.773,0.58140625,0.597529
10:21:10,30-Sep-21,0.7625,0.773,0.58140625,0.597529
10:21:10,30-Sep-21,0.7625,0.773,0.58140625,0.597529
10:21:10,30-Sep-21,0.7625,0.773,0.58140625,0.597529
10:21:10,30-Sep-21,0.7575,0.773,0.57380625,0.597529
10:21:10,30-Sep-21,0.7575,0.773,0.57380625,0.597529
10:21:10,30-Sep-21,0.7625,0.773,0.58140625,0.597529
10:21:10,30-Sep-21,0.7675,0.773,0.58905625,0.597529
10:21:10,30-Sep-21,0.7675,0.773,0.58905625,0.597529
10:21:10,30-Sep-21,0.782,0.773,0.611524,0.597529
10:21:10,30-Sep-21,0.782,0.773,0.611524,0.597529
10:21:10,30-Sep-21,0.787,0.774,0.619369,0.599076
10:21:10,30-Sep-21,0.787,0.774,0.619369,0.599076
10:21:10,30-Sep-21,0.787,0.774,0.619369,0.599076
10:21:10,30-Sep-21,0.787,0.774,0.619369,0.599076
10:21:10,30-Sep-21,0.787,0.774,0.619369,0.599076
10:21:10,30-Sep-21,0.782,0.774,0.611524,0.599076
10:21:10,30-Sep-21,0.782,0.774,0.611524,0.599076
10:21:10,30-Sep-21,0.777,0.774,0.603729,0.599076
10:21:10,30-Sep-21,0.777,0.774,0.603729,0.599076
10:21:10,30-Sep-21,0.772,0.774,0.595984,0.599076
10:21:10,30-Sep-21,0.772,0.774,0.595984,0.599076
10:21:10,30-Sep-21,0.772,0.774,0.595984,0.599076
10:21:10,30-Sep-21,0.7625,0.774,0.58140625,0.599076
10:21:10,30-Sep-21,0.7625,0.774,0.58140625,0.599076
10:21:10,30-Sep-21,0.7625,0.774,0.58140625,0.599076
10:21:10,30-Sep-21,0.7625,0.775,0.58140625,0.600625
10:21:10,30-Sep-21,0.7625,0.775,0.58140625,0.600625
10:21:10,30-Sep-21,0.772,0.775,0.595984,0.600625
10:21:10,30-Sep-21,0.772,0.776,0.595984,0.602176
10:21:10,30-Sep-21,0.772,0.776,0.595984,0.602176
10:21:10,30-Sep-21,0.777,0.776,0.603729,0.602176
10:21:10,30-Sep-21,0.792,0.777,0.627264,0.603729
10:21:10,30-Sep-21,0.792,0.777,0.627264,0.603729
10:21:10,30-Sep-21,0.787,0.778,0.619369,0.605284
10:21:10,30-Sep-21,0.787,0.778,0.619369,0.605284
10:21:10,30-Sep-21,0.787,0.779,0.619369,0.606841
10:21:10,30-Sep-21,0.772,0.78,0.595984,0.6084
10:21:10,30-Sep-21,0.772,0.78,0.595984,0.6084
10:21:10,30-Sep-21,0.7675,0.781,0.58905625,0.609961
10:21:10,30-Sep-21,0.7625,0.782,0.58140625,0.611524
10:21:10,30-Sep-21,0.7675,0.783,0.58905625,0.613089
10:21:10,30-Sep-21,0.7675,0.783,0.58905625,0.613089
10:21:10,30-Sep-21,0.7675,0.784,0.58905625,0.614656
10:21:10,30-Sep-21,0.792,0.785,0.627264,0.616225
10:21:10,30-Sep-21,0.792,0.786,0.627264,0.617796
10:21:10,30-Sep-21,0.8015,0.786,0.64240225,0.617796
10:21:10,30-Sep-21,0.8015,0.787,0.64240225,0.619369
10:21:10,30-Sep-21,0.8015,0.788,0.64240225,0.620944
10:21:10,30-Sep-21,0.8015,0.788,0.64240225,0.620944
10:21:10,30-Sep-21,0.7965,0.789,0.63441225,0.622521
10:21:10,30-Sep-21,0.7965,0.79,0.63441225,0.6241
10:21:10,30-Sep-21,0.792,0.79,0.627264,0.6241
10:21:10,30-Sep-21,0.782,0.791,0.611524,0.625681
10:21:10,30-Sep-21,0.782,0.791,0.611524,0.625681
10:21:10,30-Sep-21,0.782,0.792,0.611524,0.627264
10:21:10,30-Sep-21,0.782,0.792,0.611524,0.627264
10:21:10,30-Sep-21,0.787,0.793,0.619369,0.628849
10:21:10,30-Sep-21,0.787,0.793,0.619369,0.628849
10:21:10,30-Sep-21,0.792,0.793,0.627264,0.628849
10:21:10,30-Sep-21,0.8065,0.793,0.65044225,0.628849
10:21:10,30-Sep-21,0.8065,0.794,0.65044225,0.630436
10:21:10,30-Sep-21,0.8115,0.794,0.65853225,0.630436
10:21:10,30-Sep-21,0.8115,0.794,0.65853225,0.630436
10:21:10,30-Sep-21,0.8115,0.794,0.65853225,0.630436
10:21:10,30-Sep-21,0.8065,0.794,0.65044225,0.630436
10:21:10,30-Sep-21,0.8015,0.794,0.64240225,0.630436
10:21:10,30-Sep-21,0.8015,0.794,0.64240225,0.630436
10:21:10,30-Sep-21,0.792,0.794,0.627264,0.630436
10:21:10,30-Sep-21,0.787,0.794,0.619369,0.630436
10:21:10,30-Sep-21,0.787,0.794,0.619369,0.630436
10:21:10,30-Sep-21,0.782,0.794,0.611524,0.630436
10:21:10,30-Sep-21,0.782,0.794,0.611524,0.630436
10:21:10,30-Sep-21,0.782,0.794,0.611524,0.630436
10:21:10,30-Sep-21,0.782,0.794,0.611524,0.630436
10:21:10,30-Sep-21,0.782,0.794,0.611524,0.630436
10:21:10,30-Sep-21,0.782,0.794,0.611524,0.630436
10:21:10,30-Sep-21,0.782,0.795,0.611524,0.632025
10:21:10,30-Sep-21,0.777,0.795,0.603729,0.632025
10:21:10,30-Sep-21,0.777,0.795,0.603729,0.632025
10:21:10,30-Sep-21,0.7965,0.795,0.63441225,0.632025
10:21:10,30-Sep-21,0.7965,0.795,0.63441225,0.632025
10:21:10,30-Sep-21,0.8015,0.795,0.64240225,0.632025
10:21:10,30-Sep-21,0.8065,0.795,0.65044225,0.632025
10:21:10,30-Sep-21,0.8065,0.796,0.65044225,0.633616
10:21:10,30-Sep-21,0.8065,0.796,0.65044225,0.633616
10:21:10,30-Sep-21,0.8115,0.796,0.65853225,0.633616
10:21:11,30-Sep-21,0.8065,0.796,0.65044225,0.633616
10:21:11,30-Sep-21,0.8065,0.796,0.65044225,0.633616
10:21:11,30-Sep-21,0.8015,0.796,0.64240225,0.633616
10:21:11,30-Sep-21,0.7965,0.797,0.63441225,0.635209
10:21:11,30-Sep-21,0.7965,0.797,0.63441225,0.635209
10:21:11,30-Sep-21,0.7965,0.797,0.63441225,0.635209
10:21:11,30-Sep-21,0.787,0.797,0.619369,0.635209
10:21:11,30-Sep-21,0.787,0.797,0.619369,0.635209
10:21:11,30-Sep-21,0.787,0.797,0.619369,0.635209
10:21:11,30-Sep-21,0.787,0.797,0.619369,0.635209
10:21:11,30-Sep-21,0.787,0.796,0.619369,0.633616
10:21:11,30-Sep-21,0.787,0.796,0.619369,0.633616
10:21:11,30-Sep-21,0.787,0.796,0.619369,0.633616
10:21:11,30-Sep-21,0.8065,0.796,0.65044225,0.633616
10:21:11,30-Sep-21,0.8065,0.795,0.65044225,0.632025
10:21:11,30-Sep-21,0.8065,0.795,0.65044225,0.632025
10:21:11,30-Sep-21,0.8065,0.795,0.65044225,0.632025
10:21:11,30-Sep-21,0.8065,0.794,0.65044225,0.630436
10:21:11,30-Sep-21,0.8065,0.794,0.65044225,0.630436
10:21:11,30-Sep-21,0.8065,0.793,0.65044225,0.628849
10:21:11,30-Sep-21,0.8015,0.793,0.64240225,0.628849
10:21:11,30-Sep-21,0.8015,0.792,0.64240225,0.627264
10:21:11,30-Sep-21,0.8015,0.791,0.64240225,0.625681
10:21:11,30-Sep-21,0.787,0.791,0.619369,0.625681
10:21:11,30-Sep-21,0.782,0.79,0.611524,0.6241
10:21:11,30-Sep-21,0.782,0.789,0.611524,0.622521
10:21:11,30-Sep-21,0.772,0.788,0.595984,0.620944
10:21:11,30-Sep-21,0.772,0.788,0.595984,0.620944
10:21:11,30-Sep-21,0.772,0.787,0.595984,0.619369
10:21:11,30-Sep-21,0.7675,0.786,0.58905625,0.617796
10:21:11,30-Sep-21,0.777,0.786,0.603729,0.617796
10:21:11,30-Sep-21,0.777,0.785,0.603729,0.616225
10:21:11,30-Sep-21,0.782,0.784,0.611524,0.614656
10:21:11,30-Sep-21,0.782,0.783,0.611524,0.613089
10:21:11,30-Sep-21,0.7965,0.783,0.63441225,0.613089
10:21:11,30-Sep-21,0.792,0.782,0.627264,0.611524
10:21:11,30-Sep-21,0.792,0.781,0.627264,0.609961
10:21:11,30-Sep-21,0.792,0.781,0.627264,0.609961
10:21:11,30-Sep-21,0.792,0.78,0.627264,0.6084
10:21:11,30-Sep-21,0.787,0.779,0.619369,0.606841
10:21:11,30-Sep-21,0.782,0.779,0.611524,0.606841
10:21:11,30-Sep-21,0.772,0.778,0.595984,0.605284
10:21:11,30-Sep-21,0.772,0.778,0.595984,0.605284
10:21:11,30-Sep-21,0.772,0.777,0.595984,0.603729
10:21:11,30-Sep-21,0.7625,0.777,0.58140625,0.603729
10:21:11,30-Sep-21,0.7625,0.776,0.58140625,0.602176
10:21:11,30-Sep-21,0.7625,0.776,0.58140625,0.602176
10:21:11,30-Sep-21,0.7625,0.775,0.58140625,0.600625
10:21:11,30-Sep-21,0.782,0.775,0.611524,0.600625
10:21:11,30-Sep-21,0.782,0.774,0.611524,0.599076
10:21:11,30-Sep-21,0.787,0.774,0.619369,0.599076
10:21:11,30-Sep-21,0.787,0.774,0.619369,0.599076
10:21:11,30-Sep-21,0.787,0.773,0.619369,0.597529
10:21:11,30-Sep-21,0.787,0.773,0.619369,0.597529
10:21:11,30-Sep-21,0.782,0.773,0.611524,0.597529
10:21:11,30-Sep-21,0.772,0.772,0.595984,0.595984
10:21:11,30-Sep-21,0.7675,0.772,0.58905625,0.595984
10:21:11,30-Sep-21,0.7575,0.772,0.57380625,0.595984
10:21:11,30-Sep-21,0.7575,0.772,0.57380625,0.595984
10:21:11,30-Sep-21,0.7575,0.771,0.57380625,0.594441
10:21:11,30-Sep-21,0.7575,0.771,0.57380625,0.594441
10:21:11,30-Sep-21,0.7575,0.771,0.57380625,0.594441
10:21:11,30-Sep-21,0.7625,0.771,0.58140625,0.594441
10:21:11,30-Sep-21,0.772,0.771,0.595984,0.594441
10:21:11,30-Sep-21,0.782,0.771,0.611524,0.594441
10:21:11,30-Sep-21,0.782,0.771,0.611524,0.594441
10:21:11,30-Sep-21,0.782,0.771,0.611524,0.594441
10:21:11,30-Sep-21,0.782,0.77,0.611524,0.5929
10:21:11,30-Sep-21,0.782,0.77,0.611524,0.5929
10:21:11,30-Sep-21,0.782,0.77,0.611524,0.5929
10:21:11,30-Sep-21,0.777,0.77,0.603729,0.5929
10:21:11,30-Sep-21,0.777,0.77,0.603729,0.5929
10:21:11,30-Sep-21,0.777,0.77,0.603729,0.5929
10:21:11,30-Sep-21,0.7675,0.77,0.58905625,0.5929
10:21:11,30-Sep-21,0.7675,0.77,0.58905625,0.5929
10:21:11,30-Sep-21,0.7625,0.771,0.58140625,0.594441
10:21:11,30-Sep-21,0.7575,0.771,0.57380625,0.594441
10:21:11,30-Sep-21,0.7575,0.771,0.57380625,0.594441
10:21:11,30-Sep-21,0.7575,0.771,0.57380625,0.594441
10:21:11,30-Sep-21,0.7575,0.771,0.57380625,0.594441
10:21:11,30-Sep-21,0.7625,0.771,0.58140625,0.594441
10:21:11,30-Sep-21,0.7625,0.771,0.58140625,0.594441
10:21:11,30-Sep-21,0.7625,0.771,0.58140625,0.594441
10:21:11,30-Sep-21,0.777,0.771,0.603729,0.594441
10:21:11,30-Sep-21,0.777,0.772,0.603729,0.595984
10:21:11,30-Sep-21,0.782,0.772,0.611524,0.595984
10:21:11,30-Sep-21,0.787,0.772,0.619369,0.595984
10:21:11,30-Sep-21,0.787,0.772,0.619369,0.595984
10:21:11,30-Sep-21,0.787,0.772,0.619369,0.595984
10:21:11,30-Sep-21,0.777,0.772,0.603729,0.595984
10:21:11,30-Sep-21,0.777,0.772,0.603729,0.595984
10:21:12,30-Sep-21,0.777,0.773,0.603729,0.597529
10:21:12,30-Sep-21,0.7675,0.773,0.58905625,0.597529
10:21:12,30-Sep-21,0.7675,0.773,0.58905625,0.597529
10:21:12,30-Sep-21,0.7625,0.773,0.58140625,0.597529
10:21:12,30-Sep-21,0.7625,0.773,0.58140625,0.597529
10:21:12,30-Sep-21,0.7625,0.773,0.58140625,0.597529
10:21:12,30-Sep-21,0.7625,0.773,0.58140625,0.597529
10:21:12,30-Sep-21,0.7625,0.773,0.58140625,0.597529
10:21:12,30-Sep-21,0.7625,0.773,0.58140625,0.597529
10:21:12,30-Sep-21,0.7675,0.773,0.58905625,0.597529
10:21:12,30-Sep-21,0.7675,0.773,0.58905625,0.597529
10:21:12,30-Sep-21,0.782,0.772,0.611524,0.595984
10:21:12,30-Sep-21,0.787,0.772,0.619369,0.595984
10:21:12,30-Sep-21,0.787,0.772,0.619369,0.595984
10:21:12,30-Sep-21,0.787,0.772,0.619369,0.595984
10:21:12,30-Sep-21,0.782,0.771,0.611524,0.594441
10:21:12,30-Sep-21,0.782,0.771,0.611524,0.594441
10:21:12,30-Sep-21,0.782,0.771,0.611524,0.594441
10:21:12,30-Sep-21,0.782,0.77,0.611524,0.5929
10:21:12,30-Sep-21,0.7675,0.77,0.58905625,0.5929
10:21:12,30-Sep-21,0.7675,0.77,0.58905625,0.5929
10:21:12,30-Sep-21,0.7675,0.769,0.58905625,0.591361
10:21:12,30-Sep-21,0.7675,0.769,0.58905625,0.591361
10:21:12,30-Sep-21,0.7625,0.768,0.58140625,0.589824
10:21:12,30-Sep-21,0.7625,0.768,0.58140625,0.589824
10:21:12,30-Sep-21,0.7525,0.767,0.56625625,0.588289
10:21:12,30-Sep-21,0.7525,0.767,0.56625625,0.588289
10:21:12,30-Sep-21,0.7525,0.766,0.56625625,0.586756
10:21:12,30-Sep-21,0.7625,0.766,0.58140625,0.586756
10:21:12,30-Sep-21,0.7625,0.765,0.58140625,0.585225
10:21:12,30-Sep-21,0.7625,0.765,0.58140625,0.585225
10:21:12,30-Sep-21,0.7675,0.764,0.58905625,0.583696
10:21:12,30-Sep-21,0.777,0.764,0.603729,0.583696
10:21:12,30-Sep-21,0.777,0.764,0.603729,0.583696
10:21:12,30-Sep-21,0.7675,0.763,0.58905625,0.582169
10:21:12,30-Sep-21,0.7675,0.763,0.58905625,0.582169
10:21:12,30-Sep-21,0.7625,0.762,0.58140625,0.580644
10:21:12,30-Sep-21,0.7625,0.762,0.58140625,0.580644
10:21:12,30-Sep-21,0.748,0.762,0.559504,0.580644
10:21:12,30-Sep-21,0.748,0.761,0.559504,0.579121
10:21:12,30-Sep-21,0.748,0.761,0.559504,0.579121
10:21:12,30-Sep-21,0.748,0.761,0.559504,0.579121
10:21:12,30-Sep-21,0.748,0.76,0.559504,0.5776
10:21:12,30-Sep-21,0.7625,0.76,0.58140625,0.5776
10:21:12,30-Sep-21,0.7625,0.76,0.58140625,0.5776
10:21:12,30-Sep-21,0.7675,0.76,0.58905625,0.5776
10:21:12,30-Sep-21,0.7675,0.759,0.58905625,0.576081
10:21:12,30-Sep-21,0.772,0.759,0.595984,0.576081
10:21:12,30-Sep-21,0.772,0.759,0.595984,0.576081
10:21:12,30-Sep-21,0.772,0.759,0.595984,0.576081
10:21:12,30-Sep-21,0.772,0.758,0.595984,0.574564
10:21:12,30-Sep-21,0.7675,0.758,0.58905625,0.574564
10:21:12,30-Sep-21,0.7675,0.758,0.58905625,0.574564
10:21:12,30-Sep-21,0.7575,0.758,0.57380625,0.574564
10:21:12,30-Sep-21,0.7575,0.758,0.57380625,0.574564
10:21:12,30-Sep-21,0.7575,0.757,0.57380625,0.573049
10:21:12,30-Sep-21,0.7575,0.757,0.57380625,0.573049
10:21:12,30-Sep-21,0.7575,0.757,0.57380625,0.573049
10:21:12,30-Sep-21,0.743,0.757,0.552049,0.573049
10:21:12,30-Sep-21,0.743,0.757,0.552049,0.573049
10:21:12,30-Sep-21,0.743,0.757,0.552049,0.573049
10:21:12,30-Sep-21,0.743,0.757,0.552049,0.573049
10:21:12,30-Sep-21,0.743,0.756,0.552049,0.571536
10:21:12,30-Sep-21,0.748,0.756,0.559504,0.571536
10:21:12,30-Sep-21,0.748,0.756,0.559504,0.571536
10:21:12,30-Sep-21,0.748,0.756,0.559504,0.571536
10:21:12,30-Sep-21,0.7525,0.756,0.56625625,0.571536
10:21:12,30-Sep-21,0.7525,0.756,0.56625625,0.571536
10:21:12,30-Sep-21,0.7675,0.756,0.58905625,0.571536
10:21:12,30-Sep-21,0.7675,0.756,0.58905625,0.571536
10:21:12,30-Sep-21,0.7675,0.756,0.58905625,0.571536
10:21:12,30-Sep-21,0.7675,0.756,0.58905625,0.571536
10:21:12,30-Sep-21,0.7675,0.756,0.58905625,0.571536
10:21:12,30-Sep-21,0.7675,0.756,0.58905625,0.571536
10:21:12,30-Sep-21,0.7675,0.756,0.58905625,0.571536
10:21:12,30-Sep-21,0.7625,0.756,0.58140625,0.571536
10:21:12,30-Sep-21,0.7625,0.756,0.58140625,0.571536
10:21:12,30-Sep-21,0.7625,0.756,0.58140625,0.571536
10:21:12,30-Sep-21,0.748,0.756,0.559504,0.571536
10:21:12,30-Sep-21,0.748,0.756,0.559504,0.571536
10:21:12,30-Sep-21,0.748,0.756,0.559504,0.571536
10:21:12,30-Sep-21,0.748,0.756,0.559504,0.571536
10:21:12,30-Sep-21,0.748,0.756,0.559504,0.571536
10:21:12,30-Sep-21,0.743,0.755,0.552049,0.570025
10:21:12,30-Sep-21,0.743,0.755,0.552049,0.570025
10:21:12,30-Sep-21,0.743,0.755,0.552049,0.570025
10:21:12,30-Sep-21,0.7575,0.755,0.57380625,0.570025
10:21:12,30-Sep-21,0.7625,0.755,0.58140625,0.570025
10:21:12,30-Sep-21,0.7625,0.755,0.58140625,0.570025
10:21:12,30-Sep-21,0.7675,0.755,0.58905625,0.570025
10:21:12,30-Sep-21,0.7675,0.754,0.58905625,0.568516
10:21:12,30-Sep-21,0.7675,0.754,0.58905625,0.568516
10:21:12,30-Sep-21,0.7675,0.754,0.58905625,0.568516
10:21:12,30-Sep-21,0.7575,0.754,0.57380625,0.568516
10:21:13,30-Sep-21,0.7525,0.754,0.56625625,0.568516
10:21:13,30-Sep-21,0.743,0.754,0.552049,0.568516
10:21:13,30-Sep-21,0.738,0.754,0.544644,0.568516
10:21:13,30-Sep-21,0.738,0.753,0.544644,0.567009
10:21:13,30-Sep-21,0.738,0.753,0.544644,0.567009
10:21:13,30-Sep-21,0.743,0.753,0.552049,0.567009
10:21:13,30-Sep-21,0.743,0.753,0.552049,0.567009
10:21:13,30-Sep-21,0.7575,0.753,0.57380625,0.567009
10:21:13,30-Sep-21,0.7625,0.753,0.58140625,0.567009
10:21:13,30-Sep-21,0.7625,0.752,0.58140625,0.565504
10:21:13,30-Sep-21,0.7625,0.752,0.58140625,0.565504
10:21:13,30-Sep-21,0.7625,0.752,0.58140625,0.565504
10:21:13,30-Sep-21,0.7625,0.752,0.58140625,0.565504
10:21:13,30-Sep-21,0.7625,0.752,0.58140625,0.565504
10:21:13,30-Sep-21,0.7575,0.752,0.57380625,0.565504
10:21:13,30-Sep-21,0.748,0.752,0.559504,0.565504
10:21:13,30-Sep-21,0.743,0.752,0.552049,0.565504
10:21:13,30-Sep-21,0.738,0.752,0.544644,0.565504
10:21:13,30-Sep-21,0.738,0.752,0.544644,0.565504
10:21:13,30-Sep-21,0.738,0.751,0.544644,0.564001
10:21:13,30-Sep-21,0.748,0.751,0.559504,0.564001
10:21:13,30-Sep-21,0.748,0.751,0.559504,0.564001
10:21:13,30-Sep-21,0.7525,0.751,0.56625625,0.564001
10:21:13,30-Sep-21,0.7575,0.751,0.57380625,0.564001
10:21:13,30-Sep-21,0.7675,0.751,0.58905625,0.564001
10:21:13,30-Sep-21,0.7675,0.751,0.58905625,0.564001
10:21:13,30-Sep-21,0.7675,0.751,0.58905625,0.564001
10:21:13,30-Sep-21,0.7575,0.751,0.57380625,0.564001
10:21:13,30-Sep-21,0.7525,0.751,0.56625625,0.564001
10:21:13,30-Sep-21,0.7525,0.751,0.56625625,0.564001
10:21:13,30-Sep-21,0.743,0.751,0.552049,0.564001
10:21:13,30-Sep-21,0.743,0.751,0.552049,0.564001
10:21:13,30-Sep-21,0.743,0.752,0.552049,0.565504
10:21:13,30-Sep-21,0.738,0.752,0.544644,0.565504
10:21:13,30-Sep-21,0.738,0.752,0.544644,0.565504
10:21:13,30-Sep-21,0.743,0.752,0.552049,0.565504
10:21:13,30-Sep-21,0.743,0.752,0.552049,0.565504
10:21:13,30-Sep-21,0.748,0.752,0.559504,0.565504
10:21:13,30-Sep-21,0.748,0.752,0.559504,0.565504
10:21:13,30-Sep-21,0.748,0.752,0.559504,0.565504
10:21:13,30-Sep-21,0.7575,0.753,0.57380625,0.567009
10:21:13,30-Sep-21,0.7575,0.753,0.57380625,0.567009
10:21:13,30-Sep-21,0.7575,0.753,0.57380625,0.567009
10:21:13,30-Sep-21,0.7675,0.753,0.58905625,0.567009
10:21:13,30-Sep-21,0.7675,0.753,0.58905625,0.567009
10:21:13,30-Sep-21,0.7675,0.753,0.58905625,0.567009
10:21:13,30-Sep-21,0.7675,0.753,0.58905625,0.567009
10:21:13,30-Sep-21,0.7625,0.753,0.58140625,0.567009
10:21:13,30-Sep-21,0.7525,0.753,0.56625625,0.567009
10:21:13,30-Sep-21,0.7525,0.753,0.56625625,0.567009
10:21:13,30-Sep-21,0.7525,0.754,0.56625625,0.568516
10:21:13,30-Sep-21,0.748,0.754,0.559504,0.568516
10:21:13,30-Sep-21,0.748,0.754,0.559504,0.568516
10:21:13,30-Sep-21,0.743,0.754,0.552049,0.568516
10:21:13,30-Sep-21,0.743,0.753,0.552049,0.567009
10:21:13,30-Sep-21,0.738,0.753,0.544644,0.567009
10:21:13,30-Sep-21,0.738,0.753,0.544644,0.567009
10:21:13,30-Sep-21,0.7525,0.753,0.56625625,0.567009
10:21:13,30-Sep-21,0.7525,0.753,0.56625625,0.567009
10:21:13,30-Sep-21,0.7575,0.753,0.57380625,0.567009
10:21:13,30-Sep-21,0.7675,0.753,0.58905625,0.567009
10:21:13,30-Sep-21,0.772,0.753,0.595984,0.567009
10:21:13,30-Sep-21,0.772,0.753,0.595984,0.567009
10:21:13,30-Sep-21,0.7625,0.753,0.58140625,0.567009
10:21:13,30-Sep-21,0.7625,0.753,0.58140625,0.567009
10:21:13,30-Sep-21,0.748,0.753,0.559504,0.567009
10:21:13,30-Sep-21,0.748,0.753,0.559504,0.567009
10:21:13,30-Sep-21,0.743,0.753,0.552049,0.567009
10:21:13,30-Sep-21,0.738,0.752,0.544644,0.565504
10:21:13,30-Sep-21,0.738,0.752,0.544644,0.565504
10:21:13,30-Sep-21,0.738,0.752,0.544644,0.565504
10:21:13,30-Sep-21,0.743,0.752,0.552049,0.565504
10:21:13,30-Sep-21,0.743,0.752,0.552049,0.565504
10:21:13,30-Sep-21,0.7575,0.752,0.57380625,0.565504
10:21:13,30-Sep-21,0.7625,0.752,0.58140625,0.565504
10:21:13,30-Sep-21,0.7625,0.752,0.58140625,0.565504
10:21:13,30-Sep-21,0.7625,0.752,0.58140625,0.565504
10:21:13,30-Sep-21,0.7625,0.752,0.58140625,0.565504
10:21:13,30-Sep-21,0.7625,0.752,0.58140625,0.565504
10:21:13,30-Sep-21,0.7525,0.752,0.56625625,0.565504
10:21:13,30-Sep-21,0.7525,0.752,0.56625625,0.565504
10:21:13,30-Sep-21,0.748,0.752,0.559504,0.565504
10:21:14,30-Sep-21,0.748,0.752,0.559504,0.565504
10:21:14,30-Sep-21,0.738,0.752,0.544644,0.565504
10:21:14,30-Sep-21,0.738,0.752,0.544644,0.565504
10:21:14,30-Sep-21,0.738,0.752,0.544644,0.565504
10:21:14,30-Sep-21,0.738,0.752,0.544644,0.565504
10:21:14,30-Sep-21,0.748,0.752,0.559504,0.565504
10:21:14,30-Sep-21,0.7625,0.752,0.58140625,0.565504
10:21:14,30-Sep-21,0.7675,0.752,0.58905625,0.565504
10:21:14,30-Sep-21,0.7675,0.752,0.58905625,0.565504
10:21:14,30-Sep-21,0.7625,0.752,0.58140625,0.565504
10:21:14,30-Sep-21,0.7625,0.752,0.58140625,0.565504
10:21:14,30-Sep-21,0.7625,0.752,0.58140625,0.565504
10:21:14,30-Sep-21,0.7625,0.752,0.58140625,0.565504
10:21:14,30-Sep-21,0.748,0.752,0.559504,0.565504
10:21:14,30-Sep-21,0.748,0.752,0.559504,0.565504
10:21:14,30-Sep-21,0.748,0.752,0.559504,0.565504
10:21:14,30-Sep-21,0.748,0.753,0.559504,0.567009
10:21:14,30-Sep-21,0.748,0.753,0.559504,0.567009
10:21:14,30-Sep-21,0.748,0.753,0.559504,0.567009
10:21:14,30-Sep-21,0.748,0.753,0.559504,0.567009
10:21:14,30-Sep-21,0.743,0.753,0.552049,0.567009
10:21:14,30-Sep-21,0.743,0.753,0.552049,0.567009
10:21:14,30-Sep-21,0.743,0.753,0.552049,0.567009
10:21:14,30-Sep-21,0.743,0.754,0.552049,0.568516
10:21:14,30-Sep-21,0.743,0.754,0.552049,0.568516
10:21:14,30-Sep-21,0.7575,0.754,0.57380625,0.568516
10:21:14,30-Sep-21,0.7575,0.754,0.57380625,0.568516
10:21:14,30-Sep-21,0.7625,0.755,0.58140625,0.570025
10:21:14,30-Sep-21,0.7625,0.755,0.58140625,0.570025
10:21:14,30-Sep-21,0.7675,0.755,0.58905625,0.570025
10:21:14,30-Sep-21,0.7675,0.755,0.58905625,0.570025
10:21:14,30-Sep-21,0.7675,0.756,0.58905625,0.571536
10:21:14,30-Sep-21,0.7675,0.756,0.58905625,0.571536
10:21:14,30-Sep-21,0.7675,0.756,0.58905625,0.571536
10:21:14,30-Sep-21,0.7675,0.756,0.58905625,0.571536
10:21:14,30-Sep-21,0.7575,0.756,0.57380625,0.571536
10:21:14,30-Sep-21,0.7525,0.757,0.56625625,0.573049
10:21:14,30-Sep-21,0.7525,0.757,0.56625625,0.573049
10:21:14,30-Sep-21,0.743,0.757,0.552049,0.573049
10:21:14,30-Sep-21,0.743,0.757,0.552049,0.573049
10:21:14,30-Sep-21,0.743,0.758,0.552049,0.574564
10:21:14,30-Sep-21,0.743,0.758,0.552049,0.574564
10:21:14,30-Sep-21,0.743,0.758,0.552049,0.574564
10:21:14,30-Sep-21,0.748,0.758,0.559504,0.574564
10:21:14,30-Sep-21,0.748,0.759,0.559504,0.576081
10:21:14,30-Sep-21,0.748,0.759,0.559504,0.576081
10:21:14,30-Sep-21,0.7675,0.759,0.58905625,0.576081
10:21:14,30-Sep-21,0.772,0.759,0.595984,0.576081
10:21:14,30-Sep-21,0.772,0.759,0.595984,0.576081
10:21:14,30-Sep-21,0.772,0.76,0.595984,0.5776
10:21:14,30-Sep-21,0.772,0.76,0.595984,0.5776
10:21:14,30-Sep-21,0.772,0.76,0.595984,0.5776
10:21:14,30-Sep-21,0.772,0.76,0.595984,0.5776
10:21:14,30-Sep-21,0.772,0.76,0.595984,0.5776
10:21:14,30-Sep-21,0.7675,0.76,0.58905625,0.5776
