Time,Date,EMG Value (V),Filtered Value (V),,
11:07:26,30-Sep-21,0.049,0.049,0.002401,0.002401
11:07:26,30-Sep-21,0.049,0.049,0.002401,0.002401
11:07:26,30-Sep-21,0.049,0.049,0.002401,0.002401
11:07:26,30-Sep-21,0.049,0.049,0.002401,0.002401
11:07:26,30-Sep-21,0.049,0.049,0.002401,0.002401
11:07:26,30-Sep-21,0.049,0.049,0.002401,0.002401
11:07:26,30-Sep-21,0.049,0.049,0.002401,0.002401
11:07:26,30-Sep-21,0.049,0.049,0.002401,0.002401
11:07:26,30-Sep-21,0.049,0.049,0.002401,0.002401
11:07:26,30-Sep-21,0.049,0.049,0.002401,0.002401
11:07:26,30-Sep-21,0.054,0.049,0.002916,0.002401
11:07:26,30-Sep-21,0.054,0.048,0.002916,0.002304
11:07:26,30-Sep-21,0.054,0.048,0.002916,0.002304
11:07:26,30-Sep-21,0.054,0.048,0.002916,0.002304
11:07:26,30-Sep-21,0.054,0.048,0.002916,0.002304
11:07:26,30-Sep-21,0.054,0.048,0.002916,0.002304
11:07:26,30-Sep-21,0.054,0.047,0.002916,0.002209
11:07:26,30-Sep-21,0.049,0.047,0.002401,0.002209
11:07:26,30-Sep-21,0.049,0.047,0.002401,0.002209
11:07:26,30-Sep-21,0.049,0.047,0.002401,0.002209
11:07:26,30-Sep-21,0.049,0.046,0.002401,0.002116
11:07:26,30-Sep-21,0.044,0.046,0.001936,0.002116
11:07:26,30-Sep-21,0.044,0.046,0.001936,0.002116
11:07:26,30-Sep-21,0.044,0.045,0.001936,0.002025
11:07:26,30-Sep-21,0.044,0.045,0.001936,0.002025
11:07:26,30-Sep-21,0.044,0.045,0.001936,0.002025
11:07:26,30-Sep-21,0.044,0.045,0.001936,0.002025
11:07:26,30-Sep-21,0.039,0.044,0.001521,0.001936
11:07:26,30-Sep-21,0.039,0.044,0.001521,0.001936
11:07:26,30-Sep-21,0.039,0.044,0.001521,0.001936
11:07:26,30-Sep-21,0.039,0.043,0.001521,0.001849
11:07:26,30-Sep-21,0.039,0.043,0.001521,0.001849
11:07:26,30-Sep-21,0.039,0.043,0.001521,0.001849
11:07:26,30-Sep-21,0.039,0.042,0.001521,0.001764
11:07:26,30-Sep-21,0.039,0.042,0.001521,0.001764
11:07:26,30-Sep-21,0.039,0.042,0.001521,0.001764
11:07:26,30-Sep-21,0.039,0.042,0.001521,0.001764
11:07:26,30-Sep-21,0.039,0.041,0.001521,0.001681
11:07:26,30-Sep-21,0.039,0.041,0.001521,0.001681
11:07:26,30-Sep-21,0.039,0.041,0.001521,0.001681
11:07:26,30-Sep-21,0.039,0.041,0.001521,0.001681
11:07:26,30-Sep-21,0.039,0.041,0.001521,0.001681
11:07:26,30-Sep-21,0.039,0.04,0.001521,0.0016
11:07:26,30-Sep-21,0.039,0.04,0.001521,0.0016
11:07:26,30-Sep-21,0.039,0.04,0.001521,0.0016
11:07:26,30-Sep-21,0.039,0.04,0.001521,0.0016
11:07:26,30-Sep-21,0.039,0.04,0.001521,0.0016
11:07:26,30-Sep-21,0.039,0.04,0.001521,0.0016
11:07:26,30-Sep-21,0.039,0.04,0.001521,0.0016
11:07:26,30-Sep-21,0.039,0.04,0.001521,0.0016
11:07:26,30-Sep-21,0.039,0.04,0.001521,0.0016
11:07:26,30-Sep-21,0.044,0.039,0.001936,0.001521
11:07:26,30-Sep-21,0.044,0.039,0.001936,0.001521
11:07:26,30-Sep-21,0.044,0.039,0.001936,0.001521
11:07:26,30-Sep-21,0.044,0.039,0.001936,0.001521
11:07:26,30-Sep-21,0.044,0.039,0.001936,0.001521
11:07:26,30-Sep-21,0.044,0.039,0.001936,0.001521
11:07:26,30-Sep-21,0.044,0.039,0.001936,0.001521
11:07:26,30-Sep-21,0.044,0.039,0.001936,0.001521
11:07:26,30-Sep-21,0.044,0.039,0.001936,0.001521
11:07:26,30-Sep-21,0.039,0.039,0.001521,0.001521
11:07:26,30-Sep-21,0.039,0.039,0.001521,0.001521
11:07:26,30-Sep-21,0.039,0.039,0.001521,0.001521
11:07:26,30-Sep-21,0.039,0.039,0.001521,0.001521
11:07:26,30-Sep-21,0.039,0.038,0.001521,0.001444
11:07:26,30-Sep-21,0.039,0.038,0.001521,0.001444
11:07:26,30-Sep-21,0.039,0.038,0.001521,0.001444
11:07:26,30-Sep-21,0.034,0.038,0.001156,0.001444
11:07:26,30-Sep-21,0.034,0.038,0.001156,0.001444
11:07:26,30-Sep-21,0.034,0.038,0.001156,0.001444
11:07:26,30-Sep-21,0.034,0.038,0.001156,0.001444
11:07:26,30-Sep-21,0.034,0.038,0.001156,0.001444
11:07:26,30-Sep-21,0.034,0.038,0.001156,0.001444
11:07:26,30-Sep-21,0.034,0.038,0.001156,0.001444
11:07:26,30-Sep-21,0.034,0.038,0.001156,0.001444
11:07:26,30-Sep-21,0.034,0.038,0.001156,0.001444
11:07:26,30-Sep-21,0.039,0.038,0.001521,0.001444
11:07:26,30-Sep-21,0.039,0.038,0.001521,0.001444
11:07:27,30-Sep-21,0.039,0.038,0.001521,0.001444
11:07:27,30-Sep-21,0.039,0.038,0.001521,0.001444
11:07:27,30-Sep-21,0.039,0.038,0.001521,0.001444
11:07:27,30-Sep-21,0.039,0.038,0.001521,0.001444
11:07:27,30-Sep-21,0.039,0.038,0.001521,0.001444
11:07:27,30-Sep-21,0.039,0.037,0.001521,0.001369
11:07:27,30-Sep-21,0.039,0.037,0.001521,0.001369
11:07:27,30-Sep-21,0.039,0.037,0.001521,0.001369
11:07:27,30-Sep-21,0.039,0.037,0.001521,0.001369
11:07:27,30-Sep-21,0.039,0.037,0.001521,0.001369
11:07:27,30-Sep-21,0.039,0.037,0.001521,0.001369
11:07:27,30-Sep-21,0.039,0.037,0.001521,0.001369
11:07:27,30-Sep-21,0.039,0.037,0.001521,0.001369
11:07:27,30-Sep-21,0.039,0.037,0.001521,0.001369
11:07:27,30-Sep-21,0.039,0.037,0.001521,0.001369
11:07:27,30-Sep-21,0.039,0.037,0.001521,0.001369
11:07:27,30-Sep-21,0.039,0.037,0.001521,0.001369
11:07:27,30-Sep-21,0.039,0.037,0.001521,0.001369
11:07:27,30-Sep-21,0.039,0.037,0.001521,0.001369
11:07:27,30-Sep-21,0.034,0.037,0.001156,0.001369
11:07:27,30-Sep-21,0.034,0.037,0.001156,0.001369
11:07:27,30-Sep-21,0.034,0.037,0.001156,0.001369
11:07:27,30-Sep-21,0.034,0.037,0.001156,0.001369
11:07:27,30-Sep-21,0.034,0.037,0.001156,0.001369
11:07:27,30-Sep-21,0.034,0.036,0.001156,0.001296
11:07:27,30-Sep-21,0.034,0.036,0.001156,0.001296
11:07:27,30-Sep-21,0.034,0.036,0.001156,0.001296
11:07:27,30-Sep-21,0.034,0.036,0.001156,0.001296
11:07:27,30-Sep-21,0.034,0.036,0.001156,0.001296
11:07:27,30-Sep-21,0.034,0.036,0.001156,0.001296
11:07:27,30-Sep-21,0.034,0.036,0.001156,0.001296
11:07:27,30-Sep-21,0.034,0.036,0.001156,0.001296
11:07:27,30-Sep-21,0.034,0.036,0.001156,0.001296
11:07:27,30-Sep-21,0.034,0.036,0.001156,0.001296
11:07:27,30-Sep-21,0.034,0.036,0.001156,0.001296
11:07:27,30-Sep-21,0.039,0.036,0.001521,0.001296
11:07:27,30-Sep-21,0.039,0.036,0.001521,0.001296
11:07:27,30-Sep-21,0.039,0.036,0.001521,0.001296
11:07:27,30-Sep-21,0.039,0.036,0.001521,0.001296
11:07:27,30-Sep-21,0.039,0.036,0.001521,0.001296
11:07:27,30-Sep-21,0.039,0.036,0.001521,0.001296
11:07:27,30-Sep-21,0.039,0.036,0.001521,0.001296
11:07:27,30-Sep-21,0.039,0.036,0.001521,0.001296
11:07:27,30-Sep-21,0.039,0.036,0.001521,0.001296
11:07:27,30-Sep-21,0.039,0.036,0.001521,0.001296
11:07:27,30-Sep-21,0.039,0.036,0.001521,0.001296
11:07:27,30-Sep-21,0.039,0.036,0.001521,0.001296
11:07:27,30-Sep-21,0.034,0.036,0.001156,0.001296
11:07:27,30-Sep-21,0.034,0.036,0.001156,0.001296
11:07:27,30-Sep-21,0.034,0.035,0.001156,0.001225
11:07:27,30-Sep-21,0.034,0.035,0.001156,0.001225
11:07:27,30-Sep-21,0.034,0.035,0.001156,0.001225
11:07:27,30-Sep-21,0.0295,0.035,0.00087025,0.001225
11:07:27,30-Sep-21,0.0295,0.035,0.00087025,0.001225
11:07:27,30-Sep-21,0.0295,0.035,0.00087025,0.001225
11:07:27,30-Sep-21,0.0295,0.035,0.00087025,0.001225
11:07:27,30-Sep-21,0.034,0.035,0.001156,0.001225
11:07:27,30-Sep-21,0.034,0.035,0.001156,0.001225
11:07:27,30-Sep-21,0.034,0.035,0.001156,0.001225
11:07:27,30-Sep-21,0.034,0.035,0.001156,0.001225
11:07:27,30-Sep-21,0.034,0.035,0.001156,0.001225
11:07:27,30-Sep-21,0.034,0.035,0.001156,0.001225
11:07:27,30-Sep-21,0.034,0.035,0.001156,0.001225
11:07:27,30-Sep-21,0.039,0.035,0.001521,0.001225
11:07:27,30-Sep-21,0.039,0.035,0.001521,0.001225
11:07:27,30-Sep-21,0.039,0.035,0.001521,0.001225
11:07:27,30-Sep-21,0.039,0.035,0.001521,0.001225
11:07:27,30-Sep-21,0.039,0.034,0.001521,0.001156
11:07:27,30-Sep-21,0.039,0.034,0.001521,0.001156
11:07:27,30-Sep-21,0.039,0.034,0.001521,0.001156
11:07:27,30-Sep-21,0.034,0.034,0.001156,0.001156
11:07:27,30-Sep-21,0.034,0.034,0.001156,0.001156
11:07:27,30-Sep-21,0.034,0.034,0.001156,0.001156
11:07:27,30-Sep-21,0.034,0.034,0.001156,0.001156
11:07:27,30-Sep-21,0.034,0.034,0.001156,0.001156
11:07:27,30-Sep-21,0.034,0.034,0.001156,0.001156
11:07:27,30-Sep-21,0.034,0.034,0.001156,0.001156
11:07:27,30-Sep-21,0.034,0.034,0.001156,0.001156
11:07:27,30-Sep-21,0.034,0.034,0.001156,0.001156
11:07:27,30-Sep-21,0.034,0.034,0.001156,0.001156
11:07:27,30-Sep-21,0.034,0.034,0.001156,0.001156
11:07:27,30-Sep-21,0.034,0.033,0.001156,0.001089
11:07:27,30-Sep-21,0.034,0.033,0.001156,0.001089
11:07:27,30-Sep-21,0.0295,0.033,0.00087025,0.001089
11:07:27,30-Sep-21,0.0295,0.033,0.00087025,0.001089
11:07:27,30-Sep-21,0.0295,0.033,0.00087025,0.001089
11:07:27,30-Sep-21,0.0295,0.033,0.00087025,0.001089
11:07:27,30-Sep-21,0.0295,0.033,0.00087025,0.001089
11:07:27,30-Sep-21,0.0295,0.033,0.00087025,0.001089
11:07:27,30-Sep-21,0.0295,0.033,0.00087025,0.001089
11:07:27,30-Sep-21,0.0295,0.033,0.00087025,0.001089
11:07:27,30-Sep-21,0.034,0.033,0.001156,0.001089
11:07:27,30-Sep-21,0.034,0.033,0.001156,0.001089
11:07:27,30-Sep-21,0.034,0.033,0.001156,0.001089
11:07:27,30-Sep-21,0.034,0.033,0.001156,0.001089
11:07:27,30-Sep-21,0.034,0.033,0.001156,0.001089
11:07:27,30-Sep-21,0.034,0.033,0.001156,0.001089
11:07:27,30-Sep-21,0.034,0.033,0.001156,0.001089
11:07:27,30-Sep-21,0.034,0.033,0.001156,0.001089
11:07:27,30-Sep-21,0.034,0.033,0.001156,0.001089
11:07:27,30-Sep-21,0.034,0.033,0.001156,0.001089
11:07:27,30-Sep-21,0.034,0.033,0.001156,0.001089
11:07:27,30-Sep-21,0.034,0.033,0.001156,0.001089
11:07:27,30-Sep-21,0.034,0.033,0.001156,0.001089
11:07:27,30-Sep-21,0.034,0.033,0.001156,0.001089
11:07:27,30-Sep-21,0.034,0.033,0.001156,0.001089
11:07:27,30-Sep-21,0.034,0.033,0.001156,0.001089
11:07:27,30-Sep-21,0.034,0.033,0.001156,0.001089
11:07:27,30-Sep-21,0.034,0.033,0.001156,0.001089
11:07:27,30-Sep-21,0.034,0.033,0.001156,0.001089
11:07:27,30-Sep-21,0.034,0.033,0.001156,0.001089
11:07:27,30-Sep-21,0.034,0.033,0.001156,0.001089
11:07:27,30-Sep-21,0.034,0.034,0.001156,0.001156
11:07:27,30-Sep-21,0.034,0.034,0.001156,0.001156
11:07:27,30-Sep-21,0.034,0.034,0.001156,0.001156
11:07:27,30-Sep-21,0.034,0.034,0.001156,0.001156
11:07:27,30-Sep-21,0.034,0.034,0.001156,0.001156
11:07:27,30-Sep-21,0.034,0.034,0.001156,0.001156
11:07:27,30-Sep-21,0.034,0.034,0.001156,0.001156
11:07:27,30-Sep-21,0.034,0.034,0.001156,0.001156
11:07:27,30-Sep-21,0.034,0.034,0.001156,0.001156
11:07:27,30-Sep-21,0.034,0.034,0.001156,0.001156
11:07:27,30-Sep-21,0.034,0.034,0.001156,0.001156
11:07:27,30-Sep-21,0.034,0.034,0.001156,0.001156
11:07:27,30-Sep-21,0.034,0.034,0.001156,0.001156
11:07:27,30-Sep-21,0.034,0.034,0.001156,0.001156
11:07:27,30-Sep-21,0.034,0.034,0.001156,0.001156
11:07:27,30-Sep-21,0.034,0.034,0.001156,0.001156
11:07:27,30-Sep-21,0.034,0.034,0.001156,0.001156
11:07:27,30-Sep-21,0.034,0.034,0.001156,0.001156
11:07:27,30-Sep-21,0.034,0.034,0.001156,0.001156
11:07:27,30-Sep-21,0.034,0.034,0.001156,0.001156
11:07:27,30-Sep-21,0.034,0.034,0.001156,0.001156
11:07:27,30-Sep-21,0.034,0.035,0.001156,0.001225
11:07:27,30-Sep-21,0.034,0.035,0.001156,0.001225
11:07:27,30-Sep-21,0.034,0.035,0.001156,0.001225
11:07:27,30-Sep-21,0.034,0.035,0.001156,0.001225
11:07:27,30-Sep-21,0.034,0.035,0.001156,0.001225
11:07:27,30-Sep-21,0.034,0.035,0.001156,0.001225
11:07:27,30-Sep-21,0.034,0.035,0.001156,0.001225
11:07:27,30-Sep-21,0.034,0.035,0.001156,0.001225
11:07:27,30-Sep-21,0.034,0.035,0.001156,0.001225
11:07:27,30-Sep-21,0.034,0.035,0.001156,0.001225
11:07:27,30-Sep-21,0.034,0.035,0.001156,0.001225
11:07:27,30-Sep-21,0.034,0.035,0.001156,0.001225
11:07:27,30-Sep-21,0.034,0.035,0.001156,0.001225
11:07:27,30-Sep-21,0.034,0.036,0.001156,0.001296
11:07:27,30-Sep-21,0.034,0.036,0.001156,0.001296
11:07:27,30-Sep-21,0.034,0.036,0.001156,0.001296
11:07:27,30-Sep-21,0.039,0.036,0.001521,0.001296
11:07:27,30-Sep-21,0.039,0.036,0.001521,0.001296
11:07:27,30-Sep-21,0.039,0.036,0.001521,0.001296
11:07:27,30-Sep-21,0.039,0.036,0.001521,0.001296
11:07:27,30-Sep-21,0.039,0.036,0.001521,0.001296
11:07:27,30-Sep-21,0.039,0.036,0.001521,0.001296
11:07:27,30-Sep-21,0.034,0.036,0.001156,0.001296
11:07:27,30-Sep-21,0.034,0.036,0.001156,0.001296
11:07:27,30-Sep-21,0.034,0.036,0.001156,0.001296
11:07:27,30-Sep-21,0.034,0.036,0.001156,0.001296
11:07:27,30-Sep-21,0.034,0.036,0.001156,0.001296
11:07:27,30-Sep-21,0.034,0.036,0.001156,0.001296
11:07:27,30-Sep-21,0.034,0.036,0.001156,0.001296
11:07:27,30-Sep-21,0.034,0.036,0.001156,0.001296
11:07:27,30-Sep-21,0.039,0.036,0.001521,0.001296
11:07:27,30-Sep-21,0.039,0.036,0.001521,0.001296
11:07:27,30-Sep-21,0.039,0.036,0.001521,0.001296
11:07:27,30-Sep-21,0.039,0.036,0.001521,0.001296
11:07:27,30-Sep-21,0.039,0.036,0.001521,0.001296
11:07:27,30-Sep-21,0.039,0.036,0.001521,0.001296
11:07:27,30-Sep-21,0.039,0.036,0.001521,0.001296
11:07:27,30-Sep-21,0.039,0.036,0.001521,0.001296
11:07:27,30-Sep-21,0.039,0.036,0.001521,0.001296
11:07:27,30-Sep-21,0.039,0.036,0.001521,0.001296
11:07:27,30-Sep-21,0.039,0.036,0.001521,0.001296
11:07:27,30-Sep-21,0.034,0.036,0.001156,0.001296
11:07:27,30-Sep-21,0.034,0.036,0.001156,0.001296
11:07:27,30-Sep-21,0.034,0.036,0.001156,0.001296
11:07:27,30-Sep-21,0.034,0.035,0.001156,0.001225
11:07:27,30-Sep-21,0.034,0.035,0.001156,0.001225
11:07:27,30-Sep-21,0.034,0.035,0.001156,0.001225
11:07:27,30-Sep-21,0.034,0.035,0.001156,0.001225
11:07:27,30-Sep-21,0.034,0.035,0.001156,0.001225
11:07:27,30-Sep-21,0.034,0.035,0.001156,0.001225
11:07:27,30-Sep-21,0.034,0.035,0.001156,0.001225
11:07:27,30-Sep-21,0.034,0.035,0.001156,0.001225
11:07:27,30-Sep-21,0.034,0.035,0.001156,0.001225
11:07:27,30-Sep-21,0.034,0.035,0.001156,0.001225
11:07:27,30-Sep-21,0.034,0.034,0.001156,0.001156
11:07:28,30-Sep-21,0.034,0.034,0.001156,0.001156
11:07:28,30-Sep-21,0.034,0.034,0.001156,0.001156
11:07:28,30-Sep-21,0.034,0.034,0.001156,0.001156
11:07:28,30-Sep-21,0.034,0.034,0.001156,0.001156
11:07:28,30-Sep-21,0.034,0.034,0.001156,0.001156
11:07:28,30-Sep-21,0.034,0.034,0.001156,0.001156
11:07:28,30-Sep-21,0.034,0.034,0.001156,0.001156
11:07:28,30-Sep-21,0.034,0.034,0.001156,0.001156
11:07:28,30-Sep-21,0.034,0.034,0.001156,0.001156
11:07:28,30-Sep-21,0.034,0.034,0.001156,0.001156
11:07:28,30-Sep-21,0.0295,0.034,0.00087025,0.001156
11:07:28,30-Sep-21,0.0295,0.034,0.00087025,0.001156
11:07:28,30-Sep-21,0.034,0.034,0.001156,0.001156
11:07:28,30-Sep-21,0.034,0.033,0.001156,0.001089
11:07:28,30-Sep-21,0.034,0.033,0.001156,0.001089
11:07:28,30-Sep-21,0.034,0.033,0.001156,0.001089
11:07:28,30-Sep-21,0.034,0.033,0.001156,0.001089
11:07:28,30-Sep-21,0.034,0.033,0.001156,0.001089
11:07:28,30-Sep-21,0.034,0.033,0.001156,0.001089
11:07:28,30-Sep-21,0.034,0.033,0.001156,0.001089
11:07:28,30-Sep-21,0.034,0.033,0.001156,0.001089
11:07:28,30-Sep-21,0.034,0.033,0.001156,0.001089
11:07:28,30-Sep-21,0.034,0.033,0.001156,0.001089
11:07:28,30-Sep-21,0.034,0.033,0.001156,0.001089
11:07:28,30-Sep-21,0.0295,0.033,0.00087025,0.001089
11:07:28,30-Sep-21,0.0295,0.033,0.00087025,0.001089
11:07:28,30-Sep-21,0.0295,0.034,0.00087025,0.001156
11:07:28,30-Sep-21,0.0295,0.034,0.00087025,0.001156
11:07:28,30-Sep-21,0.0295,0.034,0.00087025,0.001156
11:07:28,30-Sep-21,0.034,0.034,0.001156,0.001156
11:07:28,30-Sep-21,0.034,0.034,0.001156,0.001156
11:07:28,30-Sep-21,0.034,0.034,0.001156,0.001156
11:07:28,30-Sep-21,0.034,0.034,0.001156,0.001156
11:07:28,30-Sep-21,0.034,0.034,0.001156,0.001156
11:07:28,30-Sep-21,0.034,0.034,0.001156,0.001156
11:07:28,30-Sep-21,0.034,0.034,0.001156,0.001156
11:07:28,30-Sep-21,0.034,0.034,0.001156,0.001156
11:07:28,30-Sep-21,0.034,0.034,0.001156,0.001156
11:07:28,30-Sep-21,0.039,0.034,0.001521,0.001156
11:07:28,30-Sep-21,0.039,0.033,0.001521,0.001089
11:07:28,30-Sep-21,0.039,0.033,0.001521,0.001089
11:07:28,30-Sep-21,0.039,0.033,0.001521,0.001089
11:07:28,30-Sep-21,0.034,0.033,0.001156,0.001089
11:07:28,30-Sep-21,0.034,0.033,0.001156,0.001089
11:07:28,30-Sep-21,0.034,0.033,0.001156,0.001089
11:07:28,30-Sep-21,0.034,0.033,0.001156,0.001089
11:07:28,30-Sep-21,0.034,0.033,0.001156,0.001089
11:07:28,30-Sep-21,0.034,0.033,0.001156,0.001089
11:07:28,30-Sep-21,0.034,0.033,0.001156,0.001089
11:07:28,30-Sep-21,0.034,0.033,0.001156,0.001089
11:07:28,30-Sep-21,0.034,0.033,0.001156,0.001089
11:07:28,30-Sep-21,0.034,0.033,0.001156,0.001089
11:07:28,30-Sep-21,0.034,0.032,0.001156,0.001024
11:07:28,30-Sep-21,0.0295,0.032,0.00087025,0.001024
11:07:28,30-Sep-21,0.0295,0.032,0.00087025,0.001024
11:07:28,30-Sep-21,0.0295,0.032,0.00087025,0.001024
11:07:28,30-Sep-21,0.0295,0.032,0.00087025,0.001024
11:07:28,30-Sep-21,0.0295,0.032,0.00087025,0.001024
11:07:28,30-Sep-21,0.0295,0.032,0.00087025,0.001024
11:07:28,30-Sep-21,0.0295,0.032,0.00087025,0.001024
11:07:28,30-Sep-21,0.0295,0.032,0.00087025,0.001024
11:07:28,30-Sep-21,0.034,0.031,0.001156,0.000961
11:07:28,30-Sep-21,0.034,0.031,0.001156,0.000961
11:07:28,30-Sep-21,0.034,0.031,0.001156,0.000961
11:07:28,30-Sep-21,0.034,0.031,0.001156,0.000961
11:07:28,30-Sep-21,0.0295,0.031,0.00087025,0.000961
11:07:28,30-Sep-21,0.0295,0.031,0.00087025,0.000961
11:07:28,30-Sep-21,0.0295,0.031,0.00087025,0.000961
11:07:28,30-Sep-21,0.0295,0.031,0.00087025,0.000961
11:07:28,30-Sep-21,0.0295,0.031,0.00087025,0.000961
11:07:28,30-Sep-21,0.0295,0.031,0.00087025,0.000961
11:07:28,30-Sep-21,0.0295,0.031,0.00087025,0.000961
11:07:28,30-Sep-21,0.0295,0.031,0.00087025,0.000961
11:07:28,30-Sep-21,0.0295,0.031,0.00087025,0.000961
11:07:28,30-Sep-21,0.0295,0.031,0.00087025,0.000961
11:07:28,30-Sep-21,0.0295,0.031,0.00087025,0.000961
11:07:28,30-Sep-21,0.0295,0.031,0.00087025,0.000961
11:07:28,30-Sep-21,0.0295,0.031,0.00087025,0.000961
11:07:28,30-Sep-21,0.0295,0.031,0.00087025,0.000961
11:07:28,30-Sep-21,0.0295,0.031,0.00087025,0.000961
11:07:28,30-Sep-21,0.0295,0.031,0.00087025,0.000961
11:07:28,30-Sep-21,0.0295,0.031,0.00087025,0.000961
11:07:28,30-Sep-21,0.0295,0.031,0.00087025,0.000961
11:07:28,30-Sep-21,0.034,0.031,0.001156,0.000961
11:07:28,30-Sep-21,0.034,0.031,0.001156,0.000961
11:07:28,30-Sep-21,0.034,0.031,0.001156,0.000961
11:07:28,30-Sep-21,0.034,0.031,0.001156,0.000961
11:07:28,30-Sep-21,0.034,0.032,0.001156,0.001024
11:07:28,30-Sep-21,0.034,0.032,0.001156,0.001024
11:07:28,30-Sep-21,0.034,0.032,0.001156,0.001024
11:07:28,30-Sep-21,0.034,0.032,0.001156,0.001024
11:07:28,30-Sep-21,0.034,0.032,0.001156,0.001024
11:07:28,30-Sep-21,0.034,0.032,0.001156,0.001024
11:07:28,30-Sep-21,0.034,0.032,0.001156,0.001024
11:07:28,30-Sep-21,0.0295,0.032,0.00087025,0.001024
11:07:28,30-Sep-21,0.0295,0.032,0.00087025,0.001024
11:07:28,30-Sep-21,0.0295,0.032,0.00087025,0.001024
11:07:28,30-Sep-21,0.0295,0.033,0.00087025,0.001089
11:07:28,30-Sep-21,0.0295,0.033,0.00087025,0.001089
11:07:28,30-Sep-21,0.034,0.033,0.001156,0.001089
11:07:28,30-Sep-21,0.034,0.033,0.001156,0.001089
11:07:28,30-Sep-21,0.034,0.033,0.001156,0.001089
11:07:28,30-Sep-21,0.034,0.033,0.001156,0.001089
11:07:28,30-Sep-21,0.034,0.033,0.001156,0.001089
11:07:28,30-Sep-21,0.034,0.033,0.001156,0.001089
11:07:28,30-Sep-21,0.034,0.033,0.001156,0.001089
11:07:28,30-Sep-21,0.034,0.033,0.001156,0.001089
11:07:28,30-Sep-21,0.034,0.034,0.001156,0.001156
11:07:28,30-Sep-21,0.034,0.034,0.001156,0.001156
11:07:28,30-Sep-21,0.034,0.034,0.001156,0.001156
11:07:28,30-Sep-21,0.034,0.034,0.001156,0.001156
11:07:28,30-Sep-21,0.034,0.034,0.001156,0.001156
11:07:28,30-Sep-21,0.034,0.034,0.001156,0.001156
11:07:28,30-Sep-21,0.034,0.034,0.001156,0.001156
11:07:28,30-Sep-21,0.034,0.034,0.001156,0.001156
11:07:28,30-Sep-21,0.034,0.034,0.001156,0.001156
11:07:28,30-Sep-21,0.034,0.034,0.001156,0.001156
11:07:28,30-Sep-21,0.034,0.034,0.001156,0.001156
11:07:28,30-Sep-21,0.034,0.034,0.001156,0.001156
11:07:28,30-Sep-21,0.034,0.035,0.001156,0.001225
11:07:28,30-Sep-21,0.034,0.035,0.001156,0.001225
11:07:28,30-Sep-21,0.034,0.035,0.001156,0.001225
11:07:28,30-Sep-21,0.034,0.035,0.001156,0.001225
11:07:28,30-Sep-21,0.034,0.035,0.001156,0.001225
11:07:28,30-Sep-21,0.034,0.035,0.001156,0.001225
11:07:28,30-Sep-21,0.034,0.035,0.001156,0.001225
11:07:28,30-Sep-21,0.034,0.035,0.001156,0.001225
11:07:28,30-Sep-21,0.034,0.035,0.001156,0.001225
11:07:28,30-Sep-21,0.034,0.035,0.001156,0.001225
11:07:28,30-Sep-21,0.034,0.035,0.001156,0.001225
11:07:28,30-Sep-21,0.034,0.035,0.001156,0.001225
11:07:28,30-Sep-21,0.034,0.035,0.001156,0.001225
11:07:28,30-Sep-21,0.034,0.035,0.001156,0.001225
11:07:28,30-Sep-21,0.039,0.035,0.001521,0.001225
11:07:28,30-Sep-21,0.039,0.035,0.001521,0.001225
11:07:28,30-Sep-21,0.039,0.035,0.001521,0.001225
11:07:28,30-Sep-21,0.039,0.035,0.001521,0.001225
11:07:28,30-Sep-21,0.034,0.035,0.001156,0.001225
11:07:28,30-Sep-21,0.034,0.035,0.001156,0.001225
11:07:28,30-Sep-21,0.034,0.035,0.001156,0.001225
11:07:28,30-Sep-21,0.034,0.035,0.001156,0.001225
11:07:28,30-Sep-21,0.034,0.035,0.001156,0.001225
11:07:28,30-Sep-21,0.034,0.035,0.001156,0.001225
11:07:28,30-Sep-21,0.034,0.035,0.001156,0.001225
11:07:28,30-Sep-21,0.034,0.035,0.001156,0.001225
11:07:28,30-Sep-21,0.034,0.035,0.001156,0.001225
11:07:28,30-Sep-21,0.034,0.034,0.001156,0.001156
11:07:28,30-Sep-21,0.034,0.034,0.001156,0.001156
11:07:28,30-Sep-21,0.034,0.034,0.001156,0.001156
11:07:28,30-Sep-21,0.034,0.034,0.001156,0.001156
11:07:28,30-Sep-21,0.034,0.034,0.001156,0.001156
11:07:28,30-Sep-21,0.034,0.034,0.001156,0.001156
11:07:28,30-Sep-21,0.034,0.034,0.001156,0.001156
11:07:28,30-Sep-21,0.034,0.034,0.001156,0.001156
11:07:28,30-Sep-21,0.034,0.034,0.001156,0.001156
11:07:28,30-Sep-21,0.034,0.034,0.001156,0.001156
11:07:28,30-Sep-21,0.034,0.033,0.001156,0.001089
11:07:28,30-Sep-21,0.034,0.033,0.001156,0.001089
11:07:28,30-Sep-21,0.034,0.033,0.001156,0.001089
11:07:28,30-Sep-21,0.034,0.033,0.001156,0.001089
11:07:28,30-Sep-21,0.034,0.033,0.001156,0.001089
11:07:28,30-Sep-21,0.034,0.033,0.001156,0.001089
11:07:28,30-Sep-21,0.034,0.033,0.001156,0.001089
11:07:28,30-Sep-21,0.034,0.033,0.001156,0.001089
11:07:28,30-Sep-21,0.034,0.033,0.001156,0.001089
11:07:28,30-Sep-21,0.034,0.033,0.001156,0.001089
11:07:28,30-Sep-21,0.034,0.032,0.001156,0.001024
11:07:28,30-Sep-21,0.034,0.032,0.001156,0.001024
11:07:28,30-Sep-21,0.034,0.032,0.001156,0.001024
11:07:28,30-Sep-21,0.034,0.032,0.001156,0.001024
11:07:28,30-Sep-21,0.034,0.032,0.001156,0.001024
11:07:28,30-Sep-21,0.034,0.032,0.001156,0.001024
11:07:28,30-Sep-21,0.034,0.032,0.001156,0.001024
11:07:28,30-Sep-21,0.0295,0.032,0.00087025,0.001024
11:07:28,30-Sep-21,0.0295,0.032,0.00087025,0.001024
11:07:28,30-Sep-21,0.0295,0.032,0.00087025,0.001024
11:07:28,30-Sep-21,0.0295,0.032,0.00087025,0.001024
11:07:28,30-Sep-21,0.0295,0.032,0.00087025,0.001024
11:07:28,30-Sep-21,0.0295,0.032,0.00087025,0.001024
11:07:28,30-Sep-21,0.0295,0.032,0.00087025,0.001024
11:07:28,30-Sep-21,0.0295,0.032,0.00087025,0.001024
11:07:28,30-Sep-21,0.0295,0.032,0.00087025,0.001024
11:07:28,30-Sep-21,0.0295,0.032,0.00087025,0.001024
11:07:28,30-Sep-21,0.0295,0.032,0.00087025,0.001024
11:07:28,30-Sep-21,0.0295,0.032,0.00087025,0.001024
11:07:28,30-Sep-21,0.0295,0.032,0.00087025,0.001024
11:07:28,30-Sep-21,0.0295,0.032,0.00087025,0.001024
11:07:28,30-Sep-21,0.0295,0.033,0.00087025,0.001089
11:07:28,30-Sep-21,0.0295,0.033,0.00087025,0.001089
11:07:28,30-Sep-21,0.0295,0.033,0.00087025,0.001089
11:07:28,30-Sep-21,0.0295,0.033,0.00087025,0.001089
11:07:28,30-Sep-21,0.034,0.033,0.001156,0.001089
11:07:28,30-Sep-21,0.034,0.033,0.001156,0.001089
11:07:28,30-Sep-21,0.034,0.033,0.001156,0.001089
11:07:28,30-Sep-21,0.034,0.033,0.001156,0.001089
11:07:28,30-Sep-21,0.034,0.034,0.001156,0.001156
11:07:28,30-Sep-21,0.034,0.034,0.001156,0.001156
11:07:28,30-Sep-21,0.034,0.034,0.001156,0.001156
11:07:29,30-Sep-21,0.034,0.034,0.001156,0.001156
11:07:29,30-Sep-21,0.034,0.034,0.001156,0.001156
11:07:29,30-Sep-21,0.034,0.034,0.001156,0.001156
11:07:29,30-Sep-21,0.039,0.034,0.001521,0.001156
11:07:29,30-Sep-21,0.039,0.035,0.001521,0.001225
11:07:29,30-Sep-21,0.039,0.035,0.001521,0.001225
11:07:29,30-Sep-21,0.039,0.035,0.001521,0.001225
11:07:29,30-Sep-21,0.039,0.035,0.001521,0.001225
11:07:29,30-Sep-21,0.039,0.035,0.001521,0.001225
11:07:29,30-Sep-21,0.039,0.035,0.001521,0.001225
11:07:29,30-Sep-21,0.039,0.035,0.001521,0.001225
11:07:29,30-Sep-21,0.039,0.035,0.001521,0.001225
11:07:29,30-Sep-21,0.039,0.035,0.001521,0.001225
11:07:29,30-Sep-21,0.039,0.035,0.001521,0.001225
11:07:29,30-Sep-21,0.034,0.035,0.001156,0.001225
11:07:29,30-Sep-21,0.034,0.035,0.001156,0.001225
11:07:29,30-Sep-21,0.034,0.035,0.001156,0.001225
11:07:29,30-Sep-21,0.034,0.035,0.001156,0.001225
11:07:29,30-Sep-21,0.034,0.035,0.001156,0.001225
11:07:29,30-Sep-21,0.034,0.035,0.001156,0.001225
11:07:29,30-Sep-21,0.034,0.035,0.001156,0.001225
11:07:29,30-Sep-21,0.034,0.035,0.001156,0.001225
11:07:29,30-Sep-21,0.034,0.035,0.001156,0.001225
11:07:29,30-Sep-21,0.034,0.035,0.001156,0.001225
11:07:29,30-Sep-21,0.034,0.034,0.001156,0.001156
11:07:29,30-Sep-21,0.034,0.034,0.001156,0.001156
11:07:29,30-Sep-21,0.0295,0.034,0.00087025,0.001156
11:07:29,30-Sep-21,0.0295,0.034,0.00087025,0.001156
11:07:29,30-Sep-21,0.0295,0.034,0.00087025,0.001156
11:07:29,30-Sep-21,0.034,0.034,0.001156,0.001156
11:07:29,30-Sep-21,0.034,0.034,0.001156,0.001156
11:07:29,30-Sep-21,0.034,0.034,0.001156,0.001156
11:07:29,30-Sep-21,0.034,0.034,0.001156,0.001156
11:07:29,30-Sep-21,0.034,0.034,0.001156,0.001156
11:07:29,30-Sep-21,0.034,0.034,0.001156,0.001156
11:07:29,30-Sep-21,0.034,0.034,0.001156,0.001156
11:07:29,30-Sep-21,0.034,0.034,0.001156,0.001156
11:07:29,30-Sep-21,0.034,0.034,0.001156,0.001156
11:07:29,30-Sep-21,0.034,0.034,0.001156,0.001156
11:07:29,30-Sep-21,0.0295,0.034,0.00087025,0.001156
11:07:29,30-Sep-21,0.0295,0.034,0.00087025,0.001156
11:07:29,30-Sep-21,0.0295,0.033,0.00087025,0.001089
11:07:29,30-Sep-21,0.0295,0.033,0.00087025,0.001089
11:07:29,30-Sep-21,0.034,0.033,0.001156,0.001089
11:07:29,30-Sep-21,0.034,0.033,0.001156,0.001089
11:07:29,30-Sep-21,0.034,0.033,0.001156,0.001089
11:07:29,30-Sep-21,0.034,0.033,0.001156,0.001089
11:07:29,30-Sep-21,0.034,0.033,0.001156,0.001089
11:07:29,30-Sep-21,0.034,0.033,0.001156,0.001089
11:07:29,30-Sep-21,0.034,0.033,0.001156,0.001089
11:07:29,30-Sep-21,0.034,0.033,0.001156,0.001089
11:07:29,30-Sep-21,0.034,0.033,0.001156,0.001089
11:07:29,30-Sep-21,0.034,0.033,0.001156,0.001089
11:07:29,30-Sep-21,0.034,0.033,0.001156,0.001089
11:07:29,30-Sep-21,0.034,0.033,0.001156,0.001089
11:07:29,30-Sep-21,0.034,0.033,0.001156,0.001089
11:07:29,30-Sep-21,0.034,0.033,0.001156,0.001089
11:07:29,30-Sep-21,0.034,0.033,0.001156,0.001089
11:07:29,30-Sep-21,0.034,0.033,0.001156,0.001089
11:07:29,30-Sep-21,0.034,0.033,0.001156,0.001089
11:07:29,30-Sep-21,0.034,0.033,0.001156,0.001089
11:07:29,30-Sep-21,0.034,0.033,0.001156,0.001089
11:07:29,30-Sep-21,0.034,0.033,0.001156,0.001089
11:07:29,30-Sep-21,0.034,0.033,0.001156,0.001089
11:07:29,30-Sep-21,0.034,0.033,0.001156,0.001089
11:07:29,30-Sep-21,0.034,0.033,0.001156,0.001089
11:07:29,30-Sep-21,0.034,0.033,0.001156,0.001089
11:07:29,30-Sep-21,0.034,0.033,0.001156,0.001089
11:07:29,30-Sep-21,0.034,0.033,0.001156,0.001089
11:07:29,30-Sep-21,0.034,0.033,0.001156,0.001089
11:07:29,30-Sep-21,0.034,0.033,0.001156,0.001089
11:07:29,30-Sep-21,0.034,0.033,0.001156,0.001089
11:07:29,30-Sep-21,0.034,0.033,0.001156,0.001089
11:07:29,30-Sep-21,0.034,0.033,0.001156,0.001089
11:07:29,30-Sep-21,0.034,0.033,0.001156,0.001089
11:07:29,30-Sep-21,0.034,0.033,0.001156,0.001089
11:07:29,30-Sep-21,0.034,0.033,0.001156,0.001089
11:07:29,30-Sep-21,0.034,0.033,0.001156,0.001089
11:07:29,30-Sep-21,0.034,0.033,0.001156,0.001089
11:07:29,30-Sep-21,0.034,0.033,0.001156,0.001089
11:07:29,30-Sep-21,0.034,0.033,0.001156,0.001089
11:07:29,30-Sep-21,0.034,0.033,0.001156,0.001089
11:07:29,30-Sep-21,0.034,0.033,0.001156,0.001089
11:07:29,30-Sep-21,0.034,0.033,0.001156,0.001089
11:07:29,30-Sep-21,0.034,0.033,0.001156,0.001089
11:07:29,30-Sep-21,0.0295,0.033,0.00087025,0.001089
11:07:29,30-Sep-21,0.0295,0.033,0.00087025,0.001089
11:07:29,30-Sep-21,0.0295,0.033,0.00087025,0.001089
11:07:29,30-Sep-21,0.0295,0.033,0.00087025,0.001089
11:07:29,30-Sep-21,0.0295,0.033,0.00087025,0.001089
11:07:29,30-Sep-21,0.0295,0.033,0.00087025,0.001089
11:07:29,30-Sep-21,0.0295,0.033,0.00087025,0.001089
11:07:29,30-Sep-21,0.0295,0.033,0.00087025,0.001089
11:07:29,30-Sep-21,0.0295,0.033,0.00087025,0.001089
11:07:29,30-Sep-21,0.0295,0.033,0.00087025,0.001089
11:07:29,30-Sep-21,0.0295,0.034,0.00087025,0.001156
11:07:29,30-Sep-21,0.034,0.034,0.001156,0.001156
11:07:29,30-Sep-21,0.034,0.034,0.001156,0.001156
11:07:29,30-Sep-21,0.034,0.034,0.001156,0.001156
11:07:29,30-Sep-21,0.034,0.034,0.001156,0.001156
11:07:29,30-Sep-21,0.034,0.034,0.001156,0.001156
11:07:29,30-Sep-21,0.034,0.034,0.001156,0.001156
11:07:29,30-Sep-21,0.034,0.034,0.001156,0.001156
11:07:29,30-Sep-21,0.034,0.034,0.001156,0.001156
11:07:29,30-Sep-21,0.034,0.034,0.001156,0.001156
11:07:29,30-Sep-21,0.034,0.035,0.001156,0.001225
11:07:29,30-Sep-21,0.034,0.035,0.001156,0.001225
11:07:29,30-Sep-21,0.034,0.035,0.001156,0.001225
11:07:29,30-Sep-21,0.034,0.035,0.001156,0.001225
11:07:29,30-Sep-21,0.039,0.035,0.001521,0.001225
11:07:29,30-Sep-21,0.039,0.035,0.001521,0.001225
11:07:29,30-Sep-21,0.039,0.035,0.001521,0.001225
11:07:29,30-Sep-21,0.039,0.035,0.001521,0.001225
11:07:29,30-Sep-21,0.039,0.035,0.001521,0.001225
11:07:29,30-Sep-21,0.039,0.035,0.001521,0.001225
11:07:29,30-Sep-21,0.039,0.035,0.001521,0.001225
11:07:29,30-Sep-21,0.039,0.035,0.001521,0.001225
11:07:29,30-Sep-21,0.039,0.035,0.001521,0.001225
11:07:29,30-Sep-21,0.034,0.035,0.001156,0.001225
11:07:29,30-Sep-21,0.034,0.035,0.001156,0.001225
11:07:29,30-Sep-21,0.034,0.035,0.001156,0.001225
11:07:29,30-Sep-21,0.039,0.035,0.001521,0.001225
11:07:29,30-Sep-21,0.039,0.035,0.001521,0.001225
11:07:29,30-Sep-21,0.039,0.035,0.001521,0.001225
11:07:29,30-Sep-21,0.039,0.035,0.001521,0.001225
11:07:29,30-Sep-21,0.039,0.034,0.001521,0.001156
11:07:29,30-Sep-21,0.034,0.034,0.001156,0.001156
11:07:29,30-Sep-21,0.034,0.034,0.001156,0.001156
11:07:29,30-Sep-21,0.034,0.034,0.001156,0.001156
11:07:29,30-Sep-21,0.034,0.034,0.001156,0.001156
11:07:29,30-Sep-21,0.034,0.034,0.001156,0.001156
11:07:29,30-Sep-21,0.034,0.034,0.001156,0.001156
11:07:29,30-Sep-21,0.034,0.034,0.001156,0.001156
11:07:29,30-Sep-21,0.0295,0.034,0.00087025,0.001156
11:07:29,30-Sep-21,0.0295,0.034,0.00087025,0.001156
11:07:29,30-Sep-21,0.0295,0.034,0.00087025,0.001156
11:07:29,30-Sep-21,0.0295,0.034,0.00087025,0.001156
11:07:29,30-Sep-21,0.0295,0.033,0.00087025,0.001089
11:07:29,30-Sep-21,0.0295,0.033,0.00087025,0.001089
11:07:29,30-Sep-21,0.0295,0.033,0.00087025,0.001089
11:07:29,30-Sep-21,0.0295,0.033,0.00087025,0.001089
11:07:29,30-Sep-21,0.0295,0.033,0.00087025,0.001089
11:07:29,30-Sep-21,0.0295,0.033,0.00087025,0.001089
11:07:29,30-Sep-21,0.0295,0.033,0.00087025,0.001089
11:07:29,30-Sep-21,0.0295,0.033,0.00087025,0.001089
11:07:29,30-Sep-21,0.0295,0.034,0.00087025,0.001156
11:07:29,30-Sep-21,0.0295,0.034,0.00087025,0.001156
11:07:29,30-Sep-21,0.034,0.034,0.001156,0.001156
11:07:29,30-Sep-21,0.034,0.034,0.001156,0.001156
11:07:29,30-Sep-21,0.034,0.034,0.001156,0.001156
11:07:29,30-Sep-21,0.034,0.034,0.001156,0.001156
11:07:29,30-Sep-21,0.034,0.034,0.001156,0.001156
11:07:29,30-Sep-21,0.034,0.034,0.001156,0.001156
11:07:29,30-Sep-21,0.034,0.034,0.001156,0.001156
11:07:29,30-Sep-21,0.034,0.034,0.001156,0.001156
11:07:29,30-Sep-21,0.034,0.034,0.001156,0.001156
11:07:29,30-Sep-21,0.034,0.035,0.001156,0.001225
11:07:29,30-Sep-21,0.034,0.035,0.001156,0.001225
11:07:29,30-Sep-21,0.034,0.035,0.001156,0.001225
11:07:29,30-Sep-21,0.034,0.035,0.001156,0.001225
11:07:29,30-Sep-21,0.039,0.035,0.001521,0.001225
11:07:29,30-Sep-21,0.039,0.035,0.001521,0.001225
11:07:29,30-Sep-21,0.039,0.035,0.001521,0.001225
11:07:29,30-Sep-21,0.039,0.035,0.001521,0.001225
11:07:29,30-Sep-21,0.039,0.035,0.001521,0.001225
11:07:29,30-Sep-21,0.039,0.035,0.001521,0.001225
11:07:29,30-Sep-21,0.039,0.035,0.001521,0.001225
11:07:29,30-Sep-21,0.039,0.035,0.001521,0.001225
11:07:29,30-Sep-21,0.039,0.035,0.001521,0.001225
11:07:29,30-Sep-21,0.039,0.035,0.001521,0.001225
11:07:29,30-Sep-21,0.039,0.035,0.001521,0.001225
11:07:29,30-Sep-21,0.039,0.035,0.001521,0.001225
11:07:29,30-Sep-21,0.039,0.035,0.001521,0.001225
11:07:29,30-Sep-21,0.039,0.035,0.001521,0.001225
11:07:29,30-Sep-21,0.039,0.035,0.001521,0.001225
11:07:29,30-Sep-21,0.039,0.035,0.001521,0.001225
11:07:29,30-Sep-21,0.034,0.035,0.001156,0.001225
11:07:29,30-Sep-21,0.034,0.035,0.001156,0.001225
11:07:29,30-Sep-21,0.034,0.035,0.001156,0.001225
11:07:29,30-Sep-21,0.034,0.035,0.001156,0.001225
11:07:29,30-Sep-21,0.034,0.034,0.001156,0.001156
11:07:29,30-Sep-21,0.034,0.034,0.001156,0.001156
11:07:29,30-Sep-21,0.0295,0.034,0.00087025,0.001156
11:07:29,30-Sep-21,0.0295,0.034,0.00087025,0.001156
11:07:29,30-Sep-21,0.0295,0.034,0.00087025,0.001156
11:07:29,30-Sep-21,0.0295,0.034,0.00087025,0.001156
11:07:29,30-Sep-21,0.0295,0.034,0.00087025,0.001156
11:07:29,30-Sep-21,0.0295,0.034,0.00087025,0.001156
11:07:29,30-Sep-21,0.0295,0.034,0.00087025,0.001156
11:07:29,30-Sep-21,0.0295,0.034,0.00087025,0.001156
11:07:29,30-Sep-21,0.0295,0.034,0.00087025,0.001156
11:07:29,30-Sep-21,0.0295,0.034,0.00087025,0.001156
11:07:29,30-Sep-21,0.034,0.034,0.001156,0.001156
11:07:29,30-Sep-21,0.034,0.034,0.001156,0.001156
11:07:29,30-Sep-21,0.034,0.034,0.001156,0.001156
11:07:29,30-Sep-21,0.034,0.034,0.001156,0.001156
11:07:29,30-Sep-21,0.034,0.034,0.001156,0.001156
11:07:29,30-Sep-21,0.034,0.034,0.001156,0.001156
11:07:29,30-Sep-21,0.034,0.034,0.001156,0.001156
11:07:29,30-Sep-21,0.034,0.034,0.001156,0.001156
11:07:29,30-Sep-21,0.034,0.034,0.001156,0.001156
11:07:29,30-Sep-21,0.034,0.034,0.001156,0.001156
11:07:29,30-Sep-21,0.034,0.034,0.001156,0.001156
11:07:29,30-Sep-21,0.034,0.034,0.001156,0.001156
11:07:30,30-Sep-21,0.034,0.034,0.001156,0.001156
11:07:30,30-Sep-21,0.034,0.034,0.001156,0.001156
11:07:30,30-Sep-21,0.034,0.035,0.001156,0.001225
11:07:30,30-Sep-21,0.034,0.035,0.001156,0.001225
11:07:30,30-Sep-21,0.034,0.035,0.001156,0.001225
11:07:30,30-Sep-21,0.034,0.035,0.001156,0.001225
11:07:30,30-Sep-21,0.034,0.035,0.001156,0.001225
11:07:30,30-Sep-21,0.034,0.035,0.001156,0.001225
11:07:30,30-Sep-21,0.039,0.035,0.001521,0.001225
11:07:30,30-Sep-21,0.039,0.035,0.001521,0.001225
11:07:30,30-Sep-21,0.039,0.035,0.001521,0.001225
11:07:30,30-Sep-21,0.039,0.035,0.001521,0.001225
11:07:30,30-Sep-21,0.039,0.035,0.001521,0.001225
11:07:30,30-Sep-21,0.039,0.035,0.001521,0.001225
11:07:30,30-Sep-21,0.039,0.035,0.001521,0.001225
11:07:30,30-Sep-21,0.039,0.035,0.001521,0.001225
11:07:30,30-Sep-21,0.039,0.035,0.001521,0.001225
11:07:30,30-Sep-21,0.039,0.035,0.001521,0.001225
11:07:30,30-Sep-21,0.039,0.035,0.001521,0.001225
11:07:30,30-Sep-21,0.034,0.035,0.001156,0.001225
11:07:30,30-Sep-21,0.034,0.035,0.001156,0.001225
11:07:30,30-Sep-21,0.034,0.035,0.001156,0.001225
11:07:30,30-Sep-21,0.034,0.035,0.001156,0.001225
11:07:30,30-Sep-21,0.034,0.035,0.001156,0.001225
11:07:30,30-Sep-21,0.034,0.035,0.001156,0.001225
11:07:30,30-Sep-21,0.034,0.035,0.001156,0.001225
11:07:30,30-Sep-21,0.034,0.035,0.001156,0.001225
11:07:30,30-Sep-21,0.034,0.035,0.001156,0.001225
11:07:30,30-Sep-21,0.034,0.035,0.001156,0.001225
11:07:30,30-Sep-21,0.034,0.035,0.001156,0.001225
11:07:30,30-Sep-21,0.034,0.035,0.001156,0.001225
11:07:30,30-Sep-21,0.034,0.035,0.001156,0.001225
11:07:30,30-Sep-21,0.034,0.035,0.001156,0.001225
11:07:30,30-Sep-21,0.034,0.035,0.001156,0.001225
11:07:30,30-Sep-21,0.034,0.035,0.001156,0.001225
11:07:30,30-Sep-21,0.034,0.035,0.001156,0.001225
11:07:30,30-Sep-21,0.034,0.035,0.001156,0.001225
11:07:30,30-Sep-21,0.034,0.035,0.001156,0.001225
11:07:30,30-Sep-21,0.034,0.035,0.001156,0.001225
11:07:30,30-Sep-21,0.034,0.035,0.001156,0.001225
11:07:30,30-Sep-21,0.034,0.035,0.001156,0.001225
11:07:30,30-Sep-21,0.034,0.035,0.001156,0.001225
11:07:30,30-Sep-21,0.034,0.035,0.001156,0.001225
11:07:30,30-Sep-21,0.034,0.035,0.001156,0.001225
11:07:30,30-Sep-21,0.034,0.035,0.001156,0.001225
11:07:30,30-Sep-21,0.034,0.035,0.001156,0.001225
11:07:30,30-Sep-21,0.034,0.035,0.001156,0.001225
11:07:30,30-Sep-21,0.034,0.035,0.001156,0.001225
11:07:30,30-Sep-21,0.034,0.035,0.001156,0.001225
11:07:30,30-Sep-21,0.034,0.035,0.001156,0.001225
11:07:30,30-Sep-21,0.034,0.035,0.001156,0.001225
11:07:30,30-Sep-21,0.034,0.035,0.001156,0.001225
11:07:30,30-Sep-21,0.039,0.035,0.001521,0.001225
11:07:30,30-Sep-21,0.039,0.035,0.001521,0.001225
11:07:30,30-Sep-21,0.039,0.035,0.001521,0.001225
11:07:30,30-Sep-21,0.039,0.035,0.001521,0.001225
11:07:30,30-Sep-21,0.039,0.035,0.001521,0.001225
11:07:30,30-Sep-21,0.039,0.035,0.001521,0.001225
11:07:30,30-Sep-21,0.034,0.035,0.001156,0.001225
11:07:30,30-Sep-21,0.034,0.035,0.001156,0.001225
11:07:30,30-Sep-21,0.034,0.035,0.001156,0.001225
11:07:30,30-Sep-21,0.034,0.035,0.001156,0.001225
11:07:30,30-Sep-21,0.034,0.035,0.001156,0.001225
11:07:30,30-Sep-21,0.034,0.035,0.001156,0.001225
11:07:30,30-Sep-21,0.034,0.035,0.001156,0.001225
11:07:30,30-Sep-21,0.034,0.035,0.001156,0.001225
11:07:30,30-Sep-21,0.034,0.035,0.001156,0.001225
11:07:30,30-Sep-21,0.034,0.035,0.001156,0.001225
11:07:30,30-Sep-21,0.034,0.035,0.001156,0.001225
11:07:30,30-Sep-21,0.034,0.034,0.001156,0.001156
11:07:30,30-Sep-21,0.034,0.034,0.001156,0.001156
11:07:30,30-Sep-21,0.034,0.034,0.001156,0.001156
11:07:30,30-Sep-21,0.034,0.034,0.001156,0.001156
11:07:30,30-Sep-21,0.034,0.034,0.001156,0.001156
11:07:30,30-Sep-21,0.034,0.034,0.001156,0.001156
11:07:30,30-Sep-21,0.034,0.034,0.001156,0.001156
11:07:30,30-Sep-21,0.034,0.034,0.001156,0.001156
11:07:30,30-Sep-21,0.034,0.034,0.001156,0.001156
11:07:30,30-Sep-21,0.034,0.034,0.001156,0.001156
11:07:30,30-Sep-21,0.034,0.034,0.001156,0.001156
11:07:30,30-Sep-21,0.034,0.034,0.001156,0.001156
11:07:30,30-Sep-21,0.034,0.034,0.001156,0.001156
11:07:30,30-Sep-21,0.034,0.034,0.001156,0.001156
11:07:30,30-Sep-21,0.034,0.034,0.001156,0.001156
11:07:30,30-Sep-21,0.034,0.034,0.001156,0.001156
11:07:30,30-Sep-21,0.034,0.034,0.001156,0.001156
11:07:30,30-Sep-21,0.034,0.034,0.001156,0.001156
11:07:30,30-Sep-21,0.034,0.034,0.001156,0.001156
11:07:30,30-Sep-21,0.034,0.034,0.001156,0.001156
11:07:30,30-Sep-21,0.034,0.034,0.001156,0.001156
11:07:30,30-Sep-21,0.034,0.034,0.001156,0.001156
11:07:30,30-Sep-21,0.034,0.034,0.001156,0.001156
11:07:30,30-Sep-21,0.034,0.034,0.001156,0.001156
11:07:30,30-Sep-21,0.034,0.034,0.001156,0.001156
11:07:30,30-Sep-21,0.034,0.034,0.001156,0.001156
11:07:30,30-Sep-21,0.034,0.034,0.001156,0.001156
11:07:30,30-Sep-21,0.034,0.034,0.001156,0.001156
11:07:30,30-Sep-21,0.034,0.034,0.001156,0.001156
11:07:30,30-Sep-21,0.034,0.034,0.001156,0.001156
11:07:30,30-Sep-21,0.034,0.034,0.001156,0.001156
11:07:30,30-Sep-21,0.034,0.034,0.001156,0.001156
11:07:30,30-Sep-21,0.034,0.034,0.001156,0.001156
11:07:30,30-Sep-21,0.034,0.034,0.001156,0.001156
11:07:30,30-Sep-21,0.034,0.034,0.001156,0.001156
11:07:30,30-Sep-21,0.034,0.034,0.001156,0.001156
11:07:30,30-Sep-21,0.034,0.034,0.001156,0.001156
11:07:30,30-Sep-21,0.034,0.034,0.001156,0.001156
11:07:30,30-Sep-21,0.034,0.034,0.001156,0.001156
11:07:30,30-Sep-21,0.034,0.034,0.001156,0.001156
11:07:30,30-Sep-21,0.034,0.034,0.001156,0.001156
11:07:30,30-Sep-21,0.034,0.034,0.001156,0.001156
11:07:30,30-Sep-21,0.034,0.034,0.001156,0.001156
11:07:30,30-Sep-21,0.034,0.034,0.001156,0.001156
11:07:30,30-Sep-21,0.034,0.034,0.001156,0.001156
11:07:30,30-Sep-21,0.034,0.034,0.001156,0.001156
11:07:30,30-Sep-21,0.034,0.034,0.001156,0.001156
11:07:30,30-Sep-21,0.034,0.034,0.001156,0.001156
11:07:30,30-Sep-21,0.034,0.034,0.001156,0.001156
11:07:30,30-Sep-21,0.034,0.034,0.001156,0.001156
11:07:30,30-Sep-21,0.034,0.034,0.001156,0.001156
11:07:30,30-Sep-21,0.034,0.034,0.001156,0.001156
11:07:30,30-Sep-21,0.034,0.034,0.001156,0.001156
11:07:30,30-Sep-21,0.034,0.034,0.001156,0.001156
11:07:30,30-Sep-21,0.034,0.034,0.001156,0.001156
11:07:30,30-Sep-21,0.034,0.034,0.001156,0.001156
11:07:30,30-Sep-21,0.034,0.034,0.001156,0.001156
11:07:30,30-Sep-21,0.034,0.034,0.001156,0.001156
11:07:30,30-Sep-21,0.034,0.034,0.001156,0.001156
11:07:30,30-Sep-21,0.034,0.034,0.001156,0.001156
11:07:30,30-Sep-21,0.034,0.034,0.001156,0.001156
11:07:30,30-Sep-21,0.034,0.034,0.001156,0.001156
11:07:30,30-Sep-21,0.034,0.034,0.001156,0.001156
11:07:30,30-Sep-21,0.034,0.034,0.001156,0.001156
11:07:30,30-Sep-21,0.034,0.034,0.001156,0.001156
11:07:30,30-Sep-21,0.034,0.034,0.001156,0.001156
11:07:30,30-Sep-21,0.034,0.034,0.001156,0.001156
11:07:30,30-Sep-21,0.034,0.035,0.001156,0.001225
11:07:30,30-Sep-21,0.034,0.035,0.001156,0.001225
11:07:30,30-Sep-21,0.034,0.035,0.001156,0.001225
11:07:30,30-Sep-21,0.034,0.035,0.001156,0.001225
11:07:30,30-Sep-21,0.034,0.035,0.001156,0.001225
11:07:30,30-Sep-21,0.034,0.035,0.001156,0.001225
11:07:30,30-Sep-21,0.034,0.035,0.001156,0.001225
11:07:30,30-Sep-21,0.034,0.035,0.001156,0.001225
11:07:30,30-Sep-21,0.034,0.035,0.001156,0.001225
11:07:30,30-Sep-21,0.034,0.035,0.001156,0.001225
11:07:30,30-Sep-21,0.034,0.035,0.001156,0.001225
11:07:30,30-Sep-21,0.034,0.035,0.001156,0.001225
11:07:30,30-Sep-21,0.034,0.035,0.001156,0.001225
11:07:30,30-Sep-21,0.034,0.035,0.001156,0.001225
11:07:30,30-Sep-21,0.039,0.035,0.001521,0.001225
11:07:30,30-Sep-21,0.039,0.035,0.001521,0.001225
11:07:30,30-Sep-21,0.034,0.035,0.001156,0.001225
11:07:30,30-Sep-21,0.034,0.035,0.001156,0.001225
11:07:30,30-Sep-21,0.034,0.035,0.001156,0.001225
11:07:30,30-Sep-21,0.034,0.035,0.001156,0.001225
11:07:30,30-Sep-21,0.039,0.035,0.001521,0.001225
11:07:30,30-Sep-21,0.039,0.035,0.001521,0.001225
11:07:30,30-Sep-21,0.039,0.035,0.001521,0.001225
11:07:30,30-Sep-21,0.039,0.035,0.001521,0.001225
11:07:30,30-Sep-21,0.039,0.035,0.001521,0.001225
11:07:30,30-Sep-21,0.039,0.035,0.001521,0.001225
11:07:30,30-Sep-21,0.039,0.035,0.001521,0.001225
11:07:30,30-Sep-21,0.034,0.035,0.001156,0.001225
11:07:30,30-Sep-21,0.034,0.035,0.001156,0.001225
11:07:30,30-Sep-21,0.034,0.035,0.001156,0.001225
11:07:30,30-Sep-21,0.034,0.035,0.001156,0.001225
11:07:30,30-Sep-21,0.034,0.035,0.001156,0.001225
11:07:30,30-Sep-21,0.034,0.035,0.001156,0.001225
11:07:30,30-Sep-21,0.034,0.035,0.001156,0.001225
11:07:30,30-Sep-21,0.034,0.035,0.001156,0.001225
11:07:30,30-Sep-21,0.034,0.035,0.001156,0.001225
11:07:30,30-Sep-21,0.034,0.035,0.001156,0.001225
11:07:30,30-Sep-21,0.034,0.035,0.001156,0.001225
11:07:30,30-Sep-21,0.034,0.035,0.001156,0.001225
11:07:30,30-Sep-21,0.034,0.035,0.001156,0.001225
11:07:30,30-Sep-21,0.034,0.035,0.001156,0.001225
11:07:30,30-Sep-21,0.034,0.035,0.001156,0.001225
11:07:30,30-Sep-21,0.034,0.035,0.001156,0.001225
11:07:30,30-Sep-21,0.034,0.034,0.001156,0.001156
11:07:30,30-Sep-21,0.034,0.034,0.001156,0.001156
11:07:30,30-Sep-21,0.034,0.034,0.001156,0.001156
11:07:30,30-Sep-21,0.034,0.034,0.001156,0.001156
11:07:30,30-Sep-21,0.034,0.034,0.001156,0.001156
11:07:30,30-Sep-21,0.034,0.034,0.001156,0.001156
11:07:30,30-Sep-21,0.034,0.034,0.001156,0.001156
11:07:30,30-Sep-21,0.034,0.034,0.001156,0.001156
11:07:30,30-Sep-21,0.034,0.034,0.001156,0.001156
11:07:30,30-Sep-21,0.034,0.034,0.001156,0.001156
11:07:30,30-Sep-21,0.034,0.034,0.001156,0.001156
11:07:30,30-Sep-21,0.034,0.034,0.001156,0.001156
11:07:30,30-Sep-21,0.034,0.034,0.001156,0.001156
11:07:30,30-Sep-21,0.034,0.034,0.001156,0.001156
11:07:30,30-Sep-21,0.034,0.034,0.001156,0.001156
11:07:30,30-Sep-21,0.034,0.034,0.001156,0.001156
11:07:30,30-Sep-21,0.034,0.034,0.001156,0.001156
11:07:30,30-Sep-21,0.034,0.034,0.001156,0.001156
11:07:30,30-Sep-21,0.034,0.034,0.001156,0.001156
11:07:30,30-Sep-21,0.034,0.034,0.001156,0.001156
11:07:30,30-Sep-21,0.034,0.034,0.001156,0.001156
11:07:30,30-Sep-21,0.034,0.034,0.001156,0.001156
11:07:30,30-Sep-21,0.034,0.034,0.001156,0.001156
11:07:30,30-Sep-21,0.034,0.034,0.001156,0.001156
11:07:30,30-Sep-21,0.034,0.035,0.001156,0.001225
11:07:30,30-Sep-21,0.034,0.035,0.001156,0.001225
11:07:30,30-Sep-21,0.034,0.035,0.001156,0.001225
11:07:30,30-Sep-21,0.034,0.035,0.001156,0.001225
11:07:30,30-Sep-21,0.034,0.035,0.001156,0.001225
11:07:30,30-Sep-21,0.034,0.035,0.001156,0.001225
11:07:30,30-Sep-21,0.034,0.035,0.001156,0.001225
11:07:30,30-Sep-21,0.034,0.035,0.001156,0.001225
11:07:31,30-Sep-21,0.039,0.035,0.001521,0.001225
11:07:31,30-Sep-21,0.039,0.035,0.001521,0.001225
11:07:31,30-Sep-21,0.039,0.035,0.001521,0.001225
11:07:31,30-Sep-21,0.039,0.035,0.001521,0.001225
11:07:31,30-Sep-21,0.039,0.035,0.001521,0.001225
11:07:31,30-Sep-21,0.034,0.035,0.001156,0.001225
11:07:31,30-Sep-21,0.034,0.035,0.001156,0.001225
11:07:31,30-Sep-21,0.034,0.035,0.001156,0.001225
11:07:31,30-Sep-21,0.034,0.035,0.001156,0.001225
11:07:31,30-Sep-21,0.034,0.035,0.001156,0.001225
11:07:31,30-Sep-21,0.034,0.035,0.001156,0.001225
11:07:31,30-Sep-21,0.034,0.035,0.001156,0.001225
11:07:31,30-Sep-21,0.034,0.035,0.001156,0.001225
11:07:31,30-Sep-21,0.034,0.035,0.001156,0.001225
11:07:31,30-Sep-21,0.034,0.035,0.001156,0.001225
11:07:31,30-Sep-21,0.034,0.035,0.001156,0.001225
11:07:31,30-Sep-21,0.034,0.034,0.001156,0.001156
11:07:31,30-Sep-21,0.034,0.034,0.001156,0.001156
11:07:31,30-Sep-21,0.034,0.034,0.001156,0.001156
11:07:31,30-Sep-21,0.034,0.034,0.001156,0.001156
11:07:31,30-Sep-21,0.034,0.034,0.001156,0.001156
11:07:31,30-Sep-21,0.034,0.034,0.001156,0.001156
11:07:31,30-Sep-21,0.034,0.034,0.001156,0.001156
11:07:31,30-Sep-21,0.034,0.034,0.001156,0.001156
11:07:31,30-Sep-21,0.034,0.034,0.001156,0.001156
11:07:31,30-Sep-21,0.034,0.034,0.001156,0.001156
11:07:31,30-Sep-21,0.034,0.034,0.001156,0.001156
11:07:31,30-Sep-21,0.034,0.034,0.001156,0.001156
11:07:31,30-Sep-21,0.034,0.034,0.001156,0.001156
11:07:31,30-Sep-21,0.034,0.034,0.001156,0.001156
11:07:31,30-Sep-21,0.034,0.034,0.001156,0.001156
11:07:31,30-Sep-21,0.034,0.034,0.001156,0.001156
11:07:31,30-Sep-21,0.034,0.034,0.001156,0.001156
11:07:31,30-Sep-21,0.034,0.034,0.001156,0.001156
11:07:31,30-Sep-21,0.034,0.034,0.001156,0.001156
11:07:31,30-Sep-21,0.034,0.034,0.001156,0.001156
11:07:31,30-Sep-21,0.034,0.034,0.001156,0.001156
11:07:31,30-Sep-21,0.034,0.034,0.001156,0.001156
11:07:31,30-Sep-21,0.034,0.034,0.001156,0.001156
11:07:31,30-Sep-21,0.034,0.034,0.001156,0.001156
11:07:31,30-Sep-21,0.034,0.034,0.001156,0.001156
11:07:31,30-Sep-21,0.034,0.034,0.001156,0.001156
11:07:31,30-Sep-21,0.034,0.034,0.001156,0.001156
11:07:31,30-Sep-21,0.034,0.034,0.001156,0.001156
11:07:31,30-Sep-21,0.034,0.034,0.001156,0.001156
11:07:31,30-Sep-21,0.034,0.034,0.001156,0.001156
11:07:31,30-Sep-21,0.034,0.034,0.001156,0.001156
11:07:31,30-Sep-21,0.034,0.034,0.001156,0.001156
11:07:31,30-Sep-21,0.034,0.034,0.001156,0.001156
11:07:31,30-Sep-21,0.034,0.034,0.001156,0.001156
11:07:31,30-Sep-21,0.034,0.034,0.001156,0.001156
11:07:31,30-Sep-21,0.034,0.034,0.001156,0.001156
11:07:31,30-Sep-21,0.034,0.034,0.001156,0.001156
11:07:31,30-Sep-21,0.034,0.034,0.001156,0.001156
11:07:31,30-Sep-21,0.034,0.034,0.001156,0.001156
11:07:31,30-Sep-21,0.034,0.034,0.001156,0.001156
11:07:31,30-Sep-21,0.034,0.034,0.001156,0.001156
11:07:31,30-Sep-21,0.034,0.034,0.001156,0.001156
11:07:31,30-Sep-21,0.034,0.034,0.001156,0.001156
11:07:31,30-Sep-21,0.034,0.034,0.001156,0.001156
11:07:31,30-Sep-21,0.034,0.034,0.001156,0.001156
11:07:31,30-Sep-21,0.034,0.034,0.001156,0.001156
11:07:31,30-Sep-21,0.034,0.034,0.001156,0.001156
11:07:31,30-Sep-21,0.034,0.034,0.001156,0.001156
11:07:31,30-Sep-21,0.034,0.035,0.001156,0.001225
11:07:31,30-Sep-21,0.034,0.035,0.001156,0.001225
11:07:31,30-Sep-21,0.034,0.035,0.001156,0.001225
11:07:31,30-Sep-21,0.034,0.035,0.001156,0.001225
11:07:31,30-Sep-21,0.034,0.035,0.001156,0.001225
11:07:31,30-Sep-21,0.034,0.035,0.001156,0.001225
11:07:31,30-Sep-21,0.034,0.035,0.001156,0.001225
11:07:31,30-Sep-21,0.034,0.035,0.001156,0.001225
11:07:31,30-Sep-21,0.034,0.035,0.001156,0.001225
11:07:31,30-Sep-21,0.034,0.035,0.001156,0.001225
11:07:31,30-Sep-21,0.034,0.035,0.001156,0.001225
11:07:31,30-Sep-21,0.034,0.035,0.001156,0.001225
11:07:31,30-Sep-21,0.034,0.035,0.001156,0.001225
11:07:31,30-Sep-21,0.034,0.035,0.001156,0.001225
11:07:31,30-Sep-21,0.034,0.035,0.001156,0.001225
11:07:31,30-Sep-21,0.039,0.035,0.001521,0.001225
11:07:31,30-Sep-21,0.039,0.035,0.001521,0.001225
11:07:31,30-Sep-21,0.039,0.035,0.001521,0.001225
11:07:31,30-Sep-21,0.039,0.035,0.001521,0.001225
11:07:31,30-Sep-21,0.039,0.035,0.001521,0.001225
11:07:31,30-Sep-21,0.039,0.035,0.001521,0.001225
11:07:31,30-Sep-21,0.039,0.035,0.001521,0.001225
11:07:31,30-Sep-21,0.039,0.035,0.001521,0.001225
11:07:31,30-Sep-21,0.034,0.035,0.001156,0.001225
11:07:31,30-Sep-21,0.034,0.035,0.001156,0.001225
11:07:31,30-Sep-21,0.034,0.035,0.001156,0.001225
11:07:31,30-Sep-21,0.034,0.035,0.001156,0.001225
11:07:31,30-Sep-21,0.034,0.035,0.001156,0.001225
11:07:31,30-Sep-21,0.034,0.035,0.001156,0.001225
11:07:31,30-Sep-21,0.034,0.035,0.001156,0.001225
11:07:31,30-Sep-21,0.034,0.035,0.001156,0.001225
11:07:31,30-Sep-21,0.034,0.035,0.001156,0.001225
11:07:31,30-Sep-21,0.034,0.035,0.001156,0.001225
11:07:31,30-Sep-21,0.034,0.035,0.001156,0.001225
11:07:31,30-Sep-21,0.034,0.035,0.001156,0.001225
11:07:31,30-Sep-21,0.034,0.035,0.001156,0.001225
11:07:31,30-Sep-21,0.034,0.035,0.001156,0.001225
11:07:31,30-Sep-21,0.034,0.035,0.001156,0.001225
11:07:31,30-Sep-21,0.034,0.035,0.001156,0.001225
11:07:31,30-Sep-21,0.034,0.035,0.001156,0.001225
11:07:31,30-Sep-21,0.034,0.035,0.001156,0.001225
11:07:31,30-Sep-21,0.034,0.035,0.001156,0.001225
11:07:31,30-Sep-21,0.034,0.035,0.001156,0.001225
11:07:31,30-Sep-21,0.034,0.035,0.001156,0.001225
11:07:31,30-Sep-21,0.034,0.035,0.001156,0.001225
11:07:31,30-Sep-21,0.034,0.035,0.001156,0.001225
11:07:31,30-Sep-21,0.034,0.035,0.001156,0.001225
11:07:31,30-Sep-21,0.034,0.035,0.001156,0.001225
11:07:31,30-Sep-21,0.034,0.035,0.001156,0.001225
11:07:31,30-Sep-21,0.034,0.035,0.001156,0.001225
11:07:31,30-Sep-21,0.034,0.035,0.001156,0.001225
11:07:31,30-Sep-21,0.034,0.035,0.001156,0.001225
11:07:31,30-Sep-21,0.034,0.035,0.001156,0.001225
11:07:31,30-Sep-21,0.034,0.036,0.001156,0.001296
11:07:31,30-Sep-21,0.034,0.036,0.001156,0.001296
11:07:31,30-Sep-21,0.034,0.036,0.001156,0.001296
11:07:31,30-Sep-21,0.034,0.036,0.001156,0.001296
11:07:31,30-Sep-21,0.034,0.036,0.001156,0.001296
11:07:31,30-Sep-21,0.034,0.036,0.001156,0.001296
11:07:31,30-Sep-21,0.039,0.036,0.001521,0.001296
11:07:31,30-Sep-21,0.039,0.036,0.001521,0.001296
11:07:31,30-Sep-21,0.039,0.036,0.001521,0.001296
11:07:31,30-Sep-21,0.039,0.036,0.001521,0.001296
11:07:31,30-Sep-21,0.039,0.036,0.001521,0.001296
11:07:31,30-Sep-21,0.039,0.036,0.001521,0.001296
11:07:31,30-Sep-21,0.039,0.036,0.001521,0.001296
11:07:31,30-Sep-21,0.039,0.036,0.001521,0.001296
11:07:31,30-Sep-21,0.039,0.036,0.001521,0.001296
11:07:31,30-Sep-21,0.039,0.036,0.001521,0.001296
11:07:31,30-Sep-21,0.039,0.036,0.001521,0.001296
11:07:31,30-Sep-21,0.039,0.036,0.001521,0.001296
11:07:31,30-Sep-21,0.039,0.036,0.001521,0.001296
11:07:31,30-Sep-21,0.039,0.036,0.001521,0.001296
11:07:31,30-Sep-21,0.034,0.036,0.001156,0.001296
11:07:31,30-Sep-21,0.034,0.036,0.001156,0.001296
11:07:31,30-Sep-21,0.034,0.036,0.001156,0.001296
11:07:31,30-Sep-21,0.034,0.036,0.001156,0.001296
11:07:31,30-Sep-21,0.034,0.036,0.001156,0.001296
11:07:31,30-Sep-21,0.034,0.035,0.001156,0.001225
11:07:31,30-Sep-21,0.034,0.035,0.001156,0.001225
11:07:31,30-Sep-21,0.034,0.035,0.001156,0.001225
11:07:31,30-Sep-21,0.034,0.035,0.001156,0.001225
11:07:31,30-Sep-21,0.034,0.035,0.001156,0.001225
11:07:31,30-Sep-21,0.034,0.035,0.001156,0.001225
11:07:31,30-Sep-21,0.034,0.035,0.001156,0.001225
11:07:31,30-Sep-21,0.034,0.035,0.001156,0.001225
11:07:31,30-Sep-21,0.034,0.035,0.001156,0.001225
11:07:31,30-Sep-21,0.034,0.035,0.001156,0.001225
11:07:31,30-Sep-21,0.034,0.035,0.001156,0.001225
11:07:31,30-Sep-21,0.034,0.035,0.001156,0.001225
11:07:31,30-Sep-21,0.034,0.035,0.001156,0.001225
11:07:31,30-Sep-21,0.034,0.034,0.001156,0.001156
11:07:31,30-Sep-21,0.034,0.034,0.001156,0.001156
11:07:31,30-Sep-21,0.034,0.034,0.001156,0.001156
11:07:31,30-Sep-21,0.034,0.034,0.001156,0.001156
11:07:31,30-Sep-21,0.034,0.034,0.001156,0.001156
11:07:31,30-Sep-21,0.034,0.034,0.001156,0.001156
11:07:31,30-Sep-21,0.034,0.034,0.001156,0.001156
11:07:31,30-Sep-21,0.034,0.034,0.001156,0.001156
11:07:31,30-Sep-21,0.034,0.034,0.001156,0.001156
11:07:31,30-Sep-21,0.034,0.034,0.001156,0.001156
11:07:31,30-Sep-21,0.034,0.034,0.001156,0.001156
11:07:31,30-Sep-21,0.034,0.034,0.001156,0.001156
11:07:31,30-Sep-21,0.034,0.034,0.001156,0.001156
11:07:31,30-Sep-21,0.034,0.034,0.001156,0.001156
11:07:31,30-Sep-21,0.034,0.034,0.001156,0.001156
11:07:31,30-Sep-21,0.034,0.034,0.001156,0.001156
11:07:31,30-Sep-21,0.034,0.034,0.001156,0.001156
11:07:31,30-Sep-21,0.034,0.034,0.001156,0.001156
11:07:31,30-Sep-21,0.034,0.034,0.001156,0.001156
11:07:31,30-Sep-21,0.034,0.034,0.001156,0.001156
11:07:31,30-Sep-21,0.034,0.034,0.001156,0.001156
11:07:31,30-Sep-21,0.034,0.034,0.001156,0.001156
11:07:31,30-Sep-21,0.034,0.034,0.001156,0.001156
11:07:31,30-Sep-21,0.034,0.034,0.001156,0.001156
11:07:31,30-Sep-21,0.034,0.034,0.001156,0.001156
11:07:31,30-Sep-21,0.034,0.034,0.001156,0.001156
11:07:31,30-Sep-21,0.034,0.034,0.001156,0.001156
11:07:31,30-Sep-21,0.034,0.034,0.001156,0.001156
11:07:31,30-Sep-21,0.034,0.034,0.001156,0.001156
11:07:31,30-Sep-21,0.034,0.034,0.001156,0.001156
11:07:31,30-Sep-21,0.034,0.034,0.001156,0.001156
11:07:31,30-Sep-21,0.034,0.034,0.001156,0.001156
11:07:31,30-Sep-21,0.034,0.034,0.001156,0.001156
11:07:31,30-Sep-21,0.034,0.034,0.001156,0.001156
11:07:31,30-Sep-21,0.034,0.034,0.001156,0.001156
11:07:31,30-Sep-21,0.034,0.034,0.001156,0.001156
11:07:31,30-Sep-21,0.034,0.034,0.001156,0.001156
11:07:31,30-Sep-21,0.034,0.034,0.001156,0.001156
11:07:31,30-Sep-21,0.034,0.034,0.001156,0.001156
11:07:31,30-Sep-21,0.034,0.034,0.001156,0.001156
11:07:31,30-Sep-21,0.034,0.034,0.001156,0.001156
11:07:31,30-Sep-21,0.034,0.034,0.001156,0.001156
11:07:32,30-Sep-21,0.034,0.034,0.001156,0.001156
11:07:32,30-Sep-21,0.034,0.034,0.001156,0.001156
11:07:32,30-Sep-21,0.034,0.034,0.001156,0.001156
11:07:32,30-Sep-21,0.034,0.034,0.001156,0.001156
11:07:32,30-Sep-21,0.034,0.034,0.001156,0.001156
11:07:32,30-Sep-21,0.034,0.034,0.001156,0.001156
11:07:32,30-Sep-21,0.034,0.034,0.001156,0.001156
11:07:32,30-Sep-21,0.034,0.034,0.001156,0.001156
11:07:32,30-Sep-21,0.034,0.034,0.001156,0.001156
11:07:32,30-Sep-21,0.034,0.034,0.001156,0.001156
11:07:32,30-Sep-21,0.034,0.034,0.001156,0.001156
11:07:32,30-Sep-21,0.034,0.034,0.001156,0.001156
11:07:32,30-Sep-21,0.034,0.034,0.001156,0.001156
11:07:32,30-Sep-21,0.034,0.034,0.001156,0.001156
11:07:32,30-Sep-21,0.034,0.034,0.001156,0.001156
11:07:32,30-Sep-21,0.034,0.034,0.001156,0.001156
11:07:32,30-Sep-21,0.034,0.034,0.001156,0.001156
11:07:32,30-Sep-21,0.034,0.034,0.001156,0.001156
11:07:32,30-Sep-21,0.034,0.034,0.001156,0.001156
11:07:32,30-Sep-21,0.034,0.034,0.001156,0.001156
11:07:32,30-Sep-21,0.034,0.034,0.001156,0.001156
11:07:32,30-Sep-21,0.034,0.034,0.001156,0.001156
11:07:32,30-Sep-21,0.034,0.034,0.001156,0.001156
11:07:32,30-Sep-21,0.034,0.034,0.001156,0.001156
11:07:32,30-Sep-21,0.034,0.034,0.001156,0.001156
11:07:32,30-Sep-21,0.034,0.034,0.001156,0.001156
11:07:32,30-Sep-21,0.034,0.034,0.001156,0.001156
11:07:32,30-Sep-21,0.034,0.034,0.001156,0.001156
11:07:32,30-Sep-21,0.034,0.034,0.001156,0.001156
11:07:32,30-Sep-21,0.034,0.034,0.001156,0.001156
11:07:32,30-Sep-21,0.034,0.034,0.001156,0.001156
11:07:32,30-Sep-21,0.034,0.033,0.001156,0.001089
11:07:32,30-Sep-21,0.034,0.033,0.001156,0.001089
11:07:32,30-Sep-21,0.034,0.033,0.001156,0.001089
11:07:32,30-Sep-21,0.034,0.033,0.001156,0.001089
11:07:32,30-Sep-21,0.034,0.033,0.001156,0.001089
11:07:32,30-Sep-21,0.034,0.033,0.001156,0.001089
11:07:32,30-Sep-21,0.034,0.033,0.001156,0.001089
11:07:32,30-Sep-21,0.034,0.033,0.001156,0.001089
11:07:32,30-Sep-21,0.034,0.033,0.001156,0.001089
11:07:32,30-Sep-21,0.034,0.033,0.001156,0.001089
11:07:32,30-Sep-21,0.034,0.033,0.001156,0.001089
11:07:32,30-Sep-21,0.034,0.033,0.001156,0.001089
11:07:32,30-Sep-21,0.0295,0.032,0.00087025,0.001024
11:07:32,30-Sep-21,0.0295,0.032,0.00087025,0.001024
11:07:32,30-Sep-21,0.0295,0.032,0.00087025,0.001024
11:07:32,30-Sep-21,0.0295,0.032,0.00087025,0.001024
11:07:32,30-Sep-21,0.0295,0.032,0.00087025,0.001024
11:07:32,30-Sep-21,0.0295,0.032,0.00087025,0.001024
11:07:32,30-Sep-21,0.0295,0.032,0.00087025,0.001024
11:07:32,30-Sep-21,0.0295,0.032,0.00087025,0.001024
11:07:32,30-Sep-21,0.034,0.032,0.001156,0.001024
11:07:32,30-Sep-21,0.0295,0.032,0.00087025,0.001024
11:07:32,30-Sep-21,0.0295,0.031,0.00087025,0.000961
11:07:32,30-Sep-21,0.0295,0.031,0.00087025,0.000961
11:07:32,30-Sep-21,0.034,0.031,0.001156,0.000961
11:07:32,30-Sep-21,0.034,0.031,0.001156,0.000961
11:07:32,30-Sep-21,0.034,0.031,0.001156,0.000961
11:07:32,30-Sep-21,0.034,0.031,0.001156,0.000961
11:07:32,30-Sep-21,0.034,0.031,0.001156,0.000961
11:07:32,30-Sep-21,0.034,0.031,0.001156,0.000961
11:07:32,30-Sep-21,0.034,0.031,0.001156,0.000961
11:07:32,30-Sep-21,0.0295,0.031,0.00087025,0.000961
11:07:32,30-Sep-21,0.0295,0.031,0.00087025,0.000961
11:07:32,30-Sep-21,0.0295,0.03,0.00087025,0.0009
11:07:32,30-Sep-21,0.0295,0.03,0.00087025,0.0009
11:07:32,30-Sep-21,0.0295,0.03,0.00087025,0.0009
11:07:32,30-Sep-21,0.0295,0.03,0.00087025,0.0009
11:07:32,30-Sep-21,0.0295,0.03,0.00087025,0.0009
11:07:32,30-Sep-21,0.0295,0.03,0.00087025,0.0009
11:07:32,30-Sep-21,0.0295,0.03,0.00087025,0.0009
11:07:32,30-Sep-21,0.0295,0.03,0.00087025,0.0009
11:07:32,30-Sep-21,0.0295,0.03,0.00087025,0.0009
11:07:32,30-Sep-21,0.0295,0.03,0.00087025,0.0009
11:07:32,30-Sep-21,0.0295,0.03,0.00087025,0.0009
11:07:32,30-Sep-21,0.0295,0.03,0.00087025,0.0009
11:07:32,30-Sep-21,0.0295,0.03,0.00087025,0.0009
11:07:32,30-Sep-21,0.0295,0.03,0.00087025,0.0009
11:07:32,30-Sep-21,0.0295,0.03,0.00087025,0.0009
11:07:32,30-Sep-21,0.0295,0.03,0.00087025,0.0009
11:07:32,30-Sep-21,0.0295,0.03,0.00087025,0.0009
11:07:32,30-Sep-21,0.0295,0.03,0.00087025,0.0009
11:07:32,30-Sep-21,0.0295,0.029,0.00087025,0.000841
11:07:32,30-Sep-21,0.0295,0.029,0.00087025,0.000841
11:07:32,30-Sep-21,0.0295,0.029,0.00087025,0.000841
11:07:32,30-Sep-21,0.0295,0.029,0.00087025,0.000841
11:07:32,30-Sep-21,0.0295,0.029,0.00087025,0.000841
11:07:32,30-Sep-21,0.0295,0.029,0.00087025,0.000841
11:07:32,30-Sep-21,0.0295,0.029,0.00087025,0.000841
11:07:32,30-Sep-21,0.0295,0.029,0.00087025,0.000841
11:07:32,30-Sep-21,0.0295,0.029,0.00087025,0.000841
11:07:32,30-Sep-21,0.0295,0.029,0.00087025,0.000841
11:07:32,30-Sep-21,0.0295,0.029,0.00087025,0.000841
11:07:32,30-Sep-21,0.0295,0.03,0.00087025,0.0009
11:07:32,30-Sep-21,0.0295,0.03,0.00087025,0.0009
11:07:32,30-Sep-21,0.0295,0.03,0.00087025,0.0009
11:07:32,30-Sep-21,0.0295,0.03,0.00087025,0.0009
11:07:32,30-Sep-21,0.0295,0.03,0.00087025,0.0009
11:07:32,30-Sep-21,0.0295,0.03,0.00087025,0.0009
11:07:32,30-Sep-21,0.0295,0.03,0.00087025,0.0009
11:07:32,30-Sep-21,0.0295,0.03,0.00087025,0.0009
11:07:32,30-Sep-21,0.0295,0.03,0.00087025,0.0009
11:07:32,30-Sep-21,0.0295,0.03,0.00087025,0.0009
11:07:32,30-Sep-21,0.0295,0.03,0.00087025,0.0009
11:07:32,30-Sep-21,0.0295,0.03,0.00087025,0.0009
11:07:32,30-Sep-21,0.0295,0.03,0.00087025,0.0009
11:07:32,30-Sep-21,0.0295,0.03,0.00087025,0.0009
11:07:32,30-Sep-21,0.0295,0.03,0.00087025,0.0009
11:07:32,30-Sep-21,0.0295,0.03,0.00087025,0.0009
11:07:32,30-Sep-21,0.0295,0.03,0.00087025,0.0009
11:07:32,30-Sep-21,0.0295,0.03,0.00087025,0.0009
11:07:32,30-Sep-21,0.0295,0.03,0.00087025,0.0009
11:07:32,30-Sep-21,0.0295,0.03,0.00087025,0.0009
11:07:32,30-Sep-21,0.0295,0.03,0.00087025,0.0009
11:07:32,30-Sep-21,0.0295,0.03,0.00087025,0.0009
11:07:32,30-Sep-21,0.0295,0.03,0.00087025,0.0009
11:07:32,30-Sep-21,0.034,0.03,0.001156,0.0009
11:07:32,30-Sep-21,0.034,0.03,0.001156,0.0009
11:07:32,30-Sep-21,0.034,0.031,0.001156,0.000961
11:07:32,30-Sep-21,0.034,0.031,0.001156,0.000961
11:07:32,30-Sep-21,0.034,0.031,0.001156,0.000961
11:07:32,30-Sep-21,0.034,0.031,0.001156,0.000961
11:07:33,30-Sep-21,0.034,0.031,0.001156,0.000961
11:07:33,30-Sep-21,0.034,0.031,0.001156,0.000961
11:07:33,30-Sep-21,0.0295,0.031,0.00087025,0.000961
11:07:33,30-Sep-21,0.0295,0.031,0.00087025,0.000961
11:07:33,30-Sep-21,0.0295,0.031,0.00087025,0.000961
11:07:33,30-Sep-21,0.0295,0.031,0.00087025,0.000961
11:07:33,30-Sep-21,0.0295,0.031,0.00087025,0.000961
11:07:33,30-Sep-21,0.0295,0.031,0.00087025,0.000961
11:07:33,30-Sep-21,0.0295,0.031,0.00087025,0.000961
11:07:33,30-Sep-21,0.0295,0.031,0.00087025,0.000961
11:07:33,30-Sep-21,0.0295,0.031,0.00087025,0.000961
11:07:33,30-Sep-21,0.0295,0.031,0.00087025,0.000961
11:07:33,30-Sep-21,0.0295,0.031,0.00087025,0.000961
11:07:33,30-Sep-21,0.0295,0.031,0.00087025,0.000961
11:07:33,30-Sep-21,0.0295,0.031,0.00087025,0.000961
11:07:33,30-Sep-21,0.0295,0.031,0.00087025,0.000961
11:07:33,30-Sep-21,0.0295,0.031,0.00087025,0.000961
11:07:33,30-Sep-21,0.0295,0.031,0.00087025,0.000961
11:07:33,30-Sep-21,0.0295,0.031,0.00087025,0.000961
11:07:33,30-Sep-21,0.0295,0.031,0.00087025,0.000961
11:07:33,30-Sep-21,0.0295,0.031,0.00087025,0.000961
11:07:33,30-Sep-21,0.0295,0.032,0.00087025,0.001024
11:07:33,30-Sep-21,0.0295,0.032,0.00087025,0.001024
11:07:33,30-Sep-21,0.0295,0.032,0.00087025,0.001024
11:07:33,30-Sep-21,0.0295,0.032,0.00087025,0.001024
11:07:33,30-Sep-21,0.034,0.032,0.001156,0.001024
11:07:33,30-Sep-21,0.034,0.032,0.001156,0.001024
11:07:33,30-Sep-21,0.034,0.032,0.001156,0.001024
11:07:33,30-Sep-21,0.034,0.032,0.001156,0.001024
11:07:33,30-Sep-21,0.034,0.032,0.001156,0.001024
11:07:33,30-Sep-21,0.034,0.032,0.001156,0.001024
11:07:33,30-Sep-21,0.034,0.032,0.001156,0.001024
11:07:33,30-Sep-21,0.034,0.032,0.001156,0.001024
11:07:33,30-Sep-21,0.034,0.032,0.001156,0.001024
11:07:33,30-Sep-21,0.034,0.032,0.001156,0.001024
11:07:33,30-Sep-21,0.034,0.032,0.001156,0.001024
11:07:33,30-Sep-21,0.034,0.032,0.001156,0.001024
11:07:33,30-Sep-21,0.034,0.032,0.001156,0.001024
11:07:33,30-Sep-21,0.034,0.032,0.001156,0.001024
11:07:33,30-Sep-21,0.034,0.032,0.001156,0.001024
11:07:33,30-Sep-21,0.0295,0.032,0.00087025,0.001024
11:07:33,30-Sep-21,0.0295,0.032,0.00087025,0.001024
11:07:33,30-Sep-21,0.0295,0.032,0.00087025,0.001024
11:07:33,30-Sep-21,0.0295,0.032,0.00087025,0.001024
11:07:33,30-Sep-21,0.034,0.032,0.001156,0.001024
11:07:33,30-Sep-21,0.034,0.032,0.001156,0.001024
11:07:33,30-Sep-21,0.034,0.032,0.001156,0.001024
11:07:33,30-Sep-21,0.034,0.032,0.001156,0.001024
11:07:33,30-Sep-21,0.034,0.031,0.001156,0.000961
11:07:33,30-Sep-21,0.034,0.031,0.001156,0.000961
11:07:33,30-Sep-21,0.0295,0.031,0.00087025,0.000961
11:07:33,30-Sep-21,0.0295,0.031,0.00087025,0.000961
11:07:33,30-Sep-21,0.0295,0.031,0.00087025,0.000961
11:07:33,30-Sep-21,0.0295,0.031,0.00087025,0.000961
11:07:33,30-Sep-21,0.0295,0.031,0.00087025,0.000961
11:07:33,30-Sep-21,0.0295,0.031,0.00087025,0.000961
11:07:33,30-Sep-21,0.0295,0.031,0.00087025,0.000961
11:07:33,30-Sep-21,0.0295,0.031,0.00087025,0.000961
11:07:33,30-Sep-21,0.0295,0.031,0.00087025,0.000961
11:07:33,30-Sep-21,0.0295,0.031,0.00087025,0.000961
11:07:33,30-Sep-21,0.0295,0.031,0.00087025,0.000961
11:07:33,30-Sep-21,0.0295,0.031,0.00087025,0.000961
11:07:33,30-Sep-21,0.0295,0.031,0.00087025,0.000961
11:07:33,30-Sep-21,0.0295,0.031,0.00087025,0.000961
11:07:33,30-Sep-21,0.034,0.031,0.001156,0.000961
11:07:33,30-Sep-21,0.034,0.031,0.001156,0.000961
11:07:33,30-Sep-21,0.0295,0.031,0.00087025,0.000961
11:07:33,30-Sep-21,0.0295,0.031,0.00087025,0.000961
11:07:33,30-Sep-21,0.0295,0.031,0.00087025,0.000961
11:07:33,30-Sep-21,0.0295,0.031,0.00087025,0.000961
11:07:33,30-Sep-21,0.0295,0.031,0.00087025,0.000961
11:07:33,30-Sep-21,0.034,0.031,0.001156,0.000961
11:07:33,30-Sep-21,0.034,0.031,0.001156,0.000961
11:07:33,30-Sep-21,0.034,0.031,0.001156,0.000961
11:07:33,30-Sep-21,0.0295,0.032,0.00087025,0.001024
11:07:33,30-Sep-21,0.0295,0.032,0.00087025,0.001024
11:07:33,30-Sep-21,0.0295,0.032,0.00087025,0.001024
11:07:33,30-Sep-21,0.034,0.032,0.001156,0.001024
11:07:33,30-Sep-21,0.034,0.032,0.001156,0.001024
11:07:33,30-Sep-21,0.0295,0.032,0.00087025,0.001024
11:07:33,30-Sep-21,0.0295,0.032,0.00087025,0.001024
11:07:33,30-Sep-21,0.0295,0.032,0.00087025,0.001024
11:07:33,30-Sep-21,0.0295,0.032,0.00087025,0.001024
11:07:33,30-Sep-21,0.034,0.032,0.001156,0.001024
11:07:33,30-Sep-21,0.034,0.032,0.001156,0.001024
11:07:33,30-Sep-21,0.034,0.033,0.001156,0.001089
11:07:33,30-Sep-21,0.034,0.033,0.001156,0.001089
11:07:33,30-Sep-21,0.034,0.033,0.001156,0.001089
11:07:33,30-Sep-21,0.034,0.033,0.001156,0.001089
11:07:33,30-Sep-21,0.034,0.033,0.001156,0.001089
11:07:33,30-Sep-21,0.034,0.033,0.001156,0.001089
11:07:33,30-Sep-21,0.034,0.033,0.001156,0.001089
11:07:33,30-Sep-21,0.034,0.033,0.001156,0.001089
11:07:33,30-Sep-21,0.034,0.033,0.001156,0.001089
11:07:33,30-Sep-21,0.034,0.033,0.001156,0.001089
11:07:33,30-Sep-21,0.034,0.033,0.001156,0.001089
11:07:33,30-Sep-21,0.034,0.033,0.001156,0.001089
11:07:33,30-Sep-21,0.034,0.034,0.001156,0.001156
11:07:33,30-Sep-21,0.034,0.034,0.001156,0.001156
11:07:33,30-Sep-21,0.034,0.034,0.001156,0.001156
11:07:33,30-Sep-21,0.034,0.034,0.001156,0.001156
11:07:33,30-Sep-21,0.034,0.034,0.001156,0.001156
11:07:33,30-Sep-21,0.034,0.034,0.001156,0.001156
11:07:33,30-Sep-21,0.034,0.034,0.001156,0.001156
11:07:33,30-Sep-21,0.034,0.034,0.001156,0.001156
11:07:33,30-Sep-21,0.034,0.034,0.001156,0.001156
11:07:33,30-Sep-21,0.034,0.034,0.001156,0.001156
11:07:33,30-Sep-21,0.034,0.034,0.001156,0.001156
11:07:33,30-Sep-21,0.034,0.034,0.001156,0.001156
11:07:33,30-Sep-21,0.034,0.034,0.001156,0.001156
11:07:33,30-Sep-21,0.034,0.034,0.001156,0.001156
11:07:33,30-Sep-21,0.034,0.034,0.001156,0.001156
11:07:33,30-Sep-21,0.0295,0.034,0.00087025,0.001156
11:07:33,30-Sep-21,0.034,0.034,0.001156,0.001156
11:07:33,30-Sep-21,0.034,0.034,0.001156,0.001156
11:07:33,30-Sep-21,0.034,0.034,0.001156,0.001156
11:07:33,30-Sep-21,0.034,0.034,0.001156,0.001156
11:07:33,30-Sep-21,0.034,0.034,0.001156,0.001156
11:07:33,30-Sep-21,0.034,0.034,0.001156,0.001156
11:07:33,30-Sep-21,0.034,0.034,0.001156,0.001156
11:07:33,30-Sep-21,0.034,0.034,0.001156,0.001156
11:07:33,30-Sep-21,0.034,0.034,0.001156,0.001156
11:07:33,30-Sep-21,0.034,0.034,0.001156,0.001156
11:07:33,30-Sep-21,0.034,0.034,0.001156,0.001156
11:07:33,30-Sep-21,0.034,0.034,0.001156,0.001156
11:07:33,30-Sep-21,0.034,0.034,0.001156,0.001156
11:07:33,30-Sep-21,0.034,0.034,0.001156,0.001156
11:07:33,30-Sep-21,0.034,0.034,0.001156,0.001156
11:07:33,30-Sep-21,0.034,0.034,0.001156,0.001156
11:07:34,30-Sep-21,0.034,0.034,0.001156,0.001156
11:07:34,30-Sep-21,0.034,0.034,0.001156,0.001156
11:07:34,30-Sep-21,0.034,0.034,0.001156,0.001156
11:07:34,30-Sep-21,0.034,0.034,0.001156,0.001156
11:07:34,30-Sep-21,0.034,0.034,0.001156,0.001156
11:07:34,30-Sep-21,0.034,0.034,0.001156,0.001156
11:07:34,30-Sep-21,0.034,0.034,0.001156,0.001156
11:07:34,30-Sep-21,0.034,0.034,0.001156,0.001156
11:07:34,30-Sep-21,0.034,0.034,0.001156,0.001156
11:07:34,30-Sep-21,0.034,0.034,0.001156,0.001156
11:07:34,30-Sep-21,0.034,0.034,0.001156,0.001156
11:07:34,30-Sep-21,0.034,0.034,0.001156,0.001156
11:07:34,30-Sep-21,0.034,0.034,0.001156,0.001156
11:07:34,30-Sep-21,0.034,0.034,0.001156,0.001156
11:07:34,30-Sep-21,0.034,0.034,0.001156,0.001156
11:07:34,30-Sep-21,0.034,0.034,0.001156,0.001156
11:07:34,30-Sep-21,0.034,0.034,0.001156,0.001156
11:07:34,30-Sep-21,0.034,0.034,0.001156,0.001156
11:07:34,30-Sep-21,0.034,0.034,0.001156,0.001156
11:07:34,30-Sep-21,0.034,0.034,0.001156,0.001156
11:07:34,30-Sep-21,0.034,0.034,0.001156,0.001156
11:07:34,30-Sep-21,0.034,0.034,0.001156,0.001156
11:07:34,30-Sep-21,0.034,0.034,0.001156,0.001156
11:07:34,30-Sep-21,0.034,0.034,0.001156,0.001156
11:07:34,30-Sep-21,0.034,0.034,0.001156,0.001156
11:07:34,30-Sep-21,0.034,0.034,0.001156,0.001156
11:07:34,30-Sep-21,0.034,0.034,0.001156,0.001156
11:07:34,30-Sep-21,0.034,0.034,0.001156,0.001156
11:07:34,30-Sep-21,0.034,0.034,0.001156,0.001156
11:07:34,30-Sep-21,0.034,0.034,0.001156,0.001156
11:07:34,30-Sep-21,0.034,0.034,0.001156,0.001156
11:07:34,30-Sep-21,0.034,0.034,0.001156,0.001156
11:07:34,30-Sep-21,0.034,0.034,0.001156,0.001156
11:07:34,30-Sep-21,0.034,0.034,0.001156,0.001156
11:07:34,30-Sep-21,0.034,0.034,0.001156,0.001156
11:07:34,30-Sep-21,0.034,0.034,0.001156,0.001156
11:07:34,30-Sep-21,0.034,0.034,0.001156,0.001156
11:07:34,30-Sep-21,0.034,0.034,0.001156,0.001156
11:07:34,30-Sep-21,0.034,0.034,0.001156,0.001156
11:07:34,30-Sep-21,0.034,0.034,0.001156,0.001156
11:07:34,30-Sep-21,0.034,0.034,0.001156,0.001156
11:07:34,30-Sep-21,0.034,0.034,0.001156,0.001156
11:07:34,30-Sep-21,0.034,0.034,0.001156,0.001156
11:07:34,30-Sep-21,0.034,0.034,0.001156,0.001156
11:07:34,30-Sep-21,0.034,0.034,0.001156,0.001156
11:07:34,30-Sep-21,0.039,0.034,0.001521,0.001156
11:07:34,30-Sep-21,0.034,0.034,0.001156,0.001156
11:07:34,30-Sep-21,0.034,0.034,0.001156,0.001156
11:07:34,30-Sep-21,0.034,0.034,0.001156,0.001156
11:07:34,30-Sep-21,0.034,0.034,0.001156,0.001156
11:07:34,30-Sep-21,0.034,0.034,0.001156,0.001156
11:07:34,30-Sep-21,0.034,0.034,0.001156,0.001156
11:07:34,30-Sep-21,0.034,0.034,0.001156,0.001156
11:07:34,30-Sep-21,0.034,0.034,0.001156,0.001156
11:07:34,30-Sep-21,0.034,0.034,0.001156,0.001156
11:07:34,30-Sep-21,0.0295,0.034,0.00087025,0.001156
11:07:34,30-Sep-21,0.0295,0.034,0.00087025,0.001156
11:07:34,30-Sep-21,0.034,0.034,0.001156,0.001156
11:07:34,30-Sep-21,0.034,0.034,0.001156,0.001156
11:07:34,30-Sep-21,0.034,0.034,0.001156,0.001156
11:07:34,30-Sep-21,0.034,0.034,0.001156,0.001156
11:07:34,30-Sep-21,0.034,0.034,0.001156,0.001156
11:07:34,30-Sep-21,0.034,0.034,0.001156,0.001156
11:07:34,30-Sep-21,0.034,0.034,0.001156,0.001156
11:07:34,30-Sep-21,0.034,0.034,0.001156,0.001156
11:07:34,30-Sep-21,0.0295,0.034,0.00087025,0.001156
11:07:34,30-Sep-21,0.0295,0.034,0.00087025,0.001156
11:07:34,30-Sep-21,0.034,0.034,0.001156,0.001156
11:07:34,30-Sep-21,0.034,0.034,0.001156,0.001156
11:07:34,30-Sep-21,0.034,0.034,0.001156,0.001156
11:07:34,30-Sep-21,0.039,0.034,0.001521,0.001156
11:07:34,30-Sep-21,0.039,0.034,0.001521,0.001156
11:07:34,30-Sep-21,0.034,0.034,0.001156,0.001156
11:07:34,30-Sep-21,0.034,0.034,0.001156,0.001156
11:07:34,30-Sep-21,0.034,0.035,0.001156,0.001225
11:07:34,30-Sep-21,0.034,0.035,0.001156,0.001225
11:07:34,30-Sep-21,0.034,0.035,0.001156,0.001225
11:07:34,30-Sep-21,0.034,0.035,0.001156,0.001225
11:07:34,30-Sep-21,0.034,0.035,0.001156,0.001225
11:07:34,30-Sep-21,0.034,0.035,0.001156,0.001225
11:07:34,30-Sep-21,0.034,0.035,0.001156,0.001225
11:07:34,30-Sep-21,0.034,0.035,0.001156,0.001225
11:07:34,30-Sep-21,0.034,0.035,0.001156,0.001225
11:07:34,30-Sep-21,0.034,0.035,0.001156,0.001225
11:07:34,30-Sep-21,0.034,0.035,0.001156,0.001225
11:07:34,30-Sep-21,0.034,0.035,0.001156,0.001225
11:07:34,30-Sep-21,0.039,0.035,0.001521,0.001225
11:07:34,30-Sep-21,0.039,0.035,0.001521,0.001225
11:07:34,30-Sep-21,0.039,0.035,0.001521,0.001225
11:07:34,30-Sep-21,0.039,0.035,0.001521,0.001225
11:07:34,30-Sep-21,0.039,0.035,0.001521,0.001225
11:07:34,30-Sep-21,0.034,0.035,0.001156,0.001225
11:07:34,30-Sep-21,0.034,0.035,0.001156,0.001225
11:07:34,30-Sep-21,0.034,0.035,0.001156,0.001225
11:07:34,30-Sep-21,0.034,0.035,0.001156,0.001225
11:07:34,30-Sep-21,0.034,0.035,0.001156,0.001225
11:07:34,30-Sep-21,0.034,0.035,0.001156,0.001225
11:07:34,30-Sep-21,0.034,0.035,0.001156,0.001225
11:07:34,30-Sep-21,0.034,0.035,0.001156,0.001225
11:07:34,30-Sep-21,0.034,0.035,0.001156,0.001225
11:07:34,30-Sep-21,0.034,0.035,0.001156,0.001225
11:07:34,30-Sep-21,0.034,0.035,0.001156,0.001225
11:07:34,30-Sep-21,0.034,0.035,0.001156,0.001225
11:07:34,30-Sep-21,0.0295,0.034,0.00087025,0.001156
11:07:34,30-Sep-21,0.034,0.034,0.001156,0.001156
11:07:34,30-Sep-21,0.034,0.034,0.001156,0.001156
11:07:34,30-Sep-21,0.034,0.034,0.001156,0.001156
11:07:34,30-Sep-21,0.034,0.034,0.001156,0.001156
11:07:34,30-Sep-21,0.034,0.034,0.001156,0.001156
11:07:34,30-Sep-21,0.034,0.034,0.001156,0.001156
11:07:34,30-Sep-21,0.034,0.034,0.001156,0.001156
11:07:34,30-Sep-21,0.034,0.034,0.001156,0.001156
11:07:34,30-Sep-21,0.034,0.034,0.001156,0.001156
11:07:34,30-Sep-21,0.034,0.034,0.001156,0.001156
11:07:34,30-Sep-21,0.034,0.033,0.001156,0.001089
11:07:35,30-Sep-21,0.034,0.033,0.001156,0.001089
11:07:35,30-Sep-21,0.034,0.033,0.001156,0.001089
11:07:35,30-Sep-21,0.034,0.033,0.001156,0.001089
11:07:35,30-Sep-21,0.034,0.033,0.001156,0.001089
11:07:35,30-Sep-21,0.034,0.033,0.001156,0.001089
11:07:35,30-Sep-21,0.034,0.033,0.001156,0.001089
11:07:35,30-Sep-21,0.034,0.033,0.001156,0.001089
11:07:35,30-Sep-21,0.034,0.032,0.001156,0.001024
11:07:35,30-Sep-21,0.034,0.032,0.001156,0.001024
11:07:35,30-Sep-21,0.034,0.032,0.001156,0.001024
11:07:35,30-Sep-21,0.034,0.032,0.001156,0.001024
11:07:35,30-Sep-21,0.034,0.032,0.001156,0.001024
11:07:35,30-Sep-21,0.034,0.032,0.001156,0.001024
11:07:35,30-Sep-21,0.034,0.032,0.001156,0.001024
11:07:35,30-Sep-21,0.0295,0.032,0.00087025,0.001024
11:07:35,30-Sep-21,0.0295,0.032,0.00087025,0.001024
11:07:35,30-Sep-21,0.0295,0.031,0.00087025,0.000961
11:07:35,30-Sep-21,0.0295,0.031,0.00087025,0.000961
11:07:35,30-Sep-21,0.0295,0.031,0.00087025,0.000961
11:07:35,30-Sep-21,0.0295,0.031,0.00087025,0.000961
11:07:35,30-Sep-21,0.0295,0.031,0.00087025,0.000961
11:07:35,30-Sep-21,0.0295,0.031,0.00087025,0.000961
11:07:35,30-Sep-21,0.0295,0.031,0.00087025,0.000961
11:07:35,30-Sep-21,0.0295,0.031,0.00087025,0.000961
11:07:35,30-Sep-21,0.0295,0.031,0.00087025,0.000961
11:07:35,30-Sep-21,0.0295,0.031,0.00087025,0.000961
11:07:35,30-Sep-21,0.0295,0.031,0.00087025,0.000961
11:07:35,30-Sep-21,0.0295,0.031,0.00087025,0.000961
11:07:35,30-Sep-21,0.0295,0.031,0.00087025,0.000961
11:07:35,30-Sep-21,0.0295,0.031,0.00087025,0.000961
11:07:35,30-Sep-21,0.0295,0.031,0.00087025,0.000961
11:07:35,30-Sep-21,0.0295,0.031,0.00087025,0.000961
11:07:35,30-Sep-21,0.0295,0.031,0.00087025,0.000961
11:07:35,30-Sep-21,0.0295,0.031,0.00087025,0.000961
11:07:35,30-Sep-21,0.034,0.031,0.001156,0.000961
11:07:35,30-Sep-21,0.0295,0.031,0.00087025,0.000961
11:07:35,30-Sep-21,0.0295,0.031,0.00087025,0.000961
11:07:35,30-Sep-21,0.0295,0.031,0.00087025,0.000961
11:07:35,30-Sep-21,0.0295,0.031,0.00087025,0.000961
11:07:35,30-Sep-21,0.034,0.031,0.001156,0.000961
11:07:35,30-Sep-21,0.034,0.031,0.001156,0.000961
11:07:35,30-Sep-21,0.034,0.031,0.001156,0.000961
11:07:35,30-Sep-21,0.034,0.031,0.001156,0.000961
11:07:35,30-Sep-21,0.034,0.031,0.001156,0.000961
11:07:35,30-Sep-21,0.034,0.032,0.001156,0.001024
11:07:35,30-Sep-21,0.034,0.032,0.001156,0.001024
11:07:35,30-Sep-21,0.034,0.032,0.001156,0.001024
11:07:35,30-Sep-21,0.0295,0.032,0.00087025,0.001024
11:07:35,30-Sep-21,0.0295,0.032,0.00087025,0.001024
11:07:35,30-Sep-21,0.034,0.032,0.001156,0.001024
11:07:35,30-Sep-21,0.034,0.032,0.001156,0.001024
11:07:35,30-Sep-21,0.034,0.032,0.001156,0.001024
11:07:35,30-Sep-21,0.034,0.032,0.001156,0.001024
11:07:35,30-Sep-21,0.034,0.032,0.001156,0.001024
11:07:35,30-Sep-21,0.034,0.032,0.001156,0.001024
11:07:35,30-Sep-21,0.0295,0.032,0.00087025,0.001024
11:07:35,30-Sep-21,0.034,0.032,0.001156,0.001024
11:07:35,30-Sep-21,0.034,0.032,0.001156,0.001024
11:07:35,30-Sep-21,0.0295,0.032,0.00087025,0.001024
11:07:35,30-Sep-21,0.0295,0.032,0.00087025,0.001024
11:07:35,30-Sep-21,0.034,0.032,0.001156,0.001024
11:07:35,30-Sep-21,0.034,0.032,0.001156,0.001024
11:07:35,30-Sep-21,0.0295,0.032,0.00087025,0.001024
11:07:35,30-Sep-21,0.0295,0.032,0.00087025,0.001024
11:07:35,30-Sep-21,0.034,0.032,0.001156,0.001024
11:07:35,30-Sep-21,0.0295,0.032,0.00087025,0.001024
11:07:35,30-Sep-21,0.0295,0.032,0.00087025,0.001024
11:07:35,30-Sep-21,0.0295,0.032,0.00087025,0.001024
11:07:35,30-Sep-21,0.0295,0.032,0.00087025,0.001024
11:07:35,30-Sep-21,0.034,0.032,0.001156,0.001024
11:07:35,30-Sep-21,0.034,0.032,0.001156,0.001024
11:07:35,30-Sep-21,0.0295,0.032,0.00087025,0.001024
11:07:35,30-Sep-21,0.0295,0.032,0.00087025,0.001024
11:07:35,30-Sep-21,0.0295,0.032,0.00087025,0.001024
11:07:35,30-Sep-21,0.034,0.032,0.001156,0.001024
11:07:35,30-Sep-21,0.034,0.032,0.001156,0.001024
11:07:35,30-Sep-21,0.034,0.032,0.001156,0.001024
11:07:35,30-Sep-21,0.034,0.032,0.001156,0.001024
11:07:35,30-Sep-21,0.034,0.033,0.001156,0.001089
11:07:35,30-Sep-21,0.034,0.033,0.001156,0.001089
11:07:35,30-Sep-21,0.034,0.033,0.001156,0.001089
11:07:35,30-Sep-21,0.034,0.033,0.001156,0.001089
11:07:35,30-Sep-21,0.034,0.033,0.001156,0.001089
11:07:35,30-Sep-21,0.034,0.033,0.001156,0.001089
11:07:35,30-Sep-21,0.034,0.033,0.001156,0.001089
11:07:35,30-Sep-21,0.034,0.033,0.001156,0.001089
11:07:35,30-Sep-21,0.034,0.033,0.001156,0.001089
11:07:35,30-Sep-21,0.034,0.033,0.001156,0.001089
11:07:35,30-Sep-21,0.034,0.033,0.001156,0.001089
11:07:35,30-Sep-21,0.0295,0.033,0.00087025,0.001089
11:07:35,30-Sep-21,0.0295,0.033,0.00087025,0.001089
11:07:35,30-Sep-21,0.0295,0.033,0.00087025,0.001089
11:07:35,30-Sep-21,0.0295,0.033,0.00087025,0.001089
11:07:35,30-Sep-21,0.0295,0.033,0.00087025,0.001089
11:07:35,30-Sep-21,0.0295,0.033,0.00087025,0.001089
11:07:35,30-Sep-21,0.034,0.033,0.001156,0.001089
11:07:35,30-Sep-21,0.034,0.033,0.001156,0.001089
11:07:35,30-Sep-21,0.034,0.033,0.001156,0.001089
11:07:35,30-Sep-21,0.034,0.033,0.001156,0.001089
11:07:35,30-Sep-21,0.0295,0.033,0.00087025,0.001089
11:07:35,30-Sep-21,0.0295,0.033,0.00087025,0.001089
11:07:35,30-Sep-21,0.034,0.033,0.001156,0.001089
11:07:35,30-Sep-21,0.034,0.033,0.001156,0.001089
11:07:35,30-Sep-21,0.034,0.033,0.001156,0.001089
11:07:35,30-Sep-21,0.034,0.033,0.001156,0.001089
11:07:35,30-Sep-21,0.034,0.033,0.001156,0.001089
11:07:35,30-Sep-21,0.034,0.033,0.001156,0.001089
11:07:35,30-Sep-21,0.034,0.033,0.001156,0.001089
11:07:36,30-Sep-21,0.034,0.033,0.001156,0.001089
11:07:36,30-Sep-21,0.034,0.033,0.001156,0.001089
11:07:36,30-Sep-21,0.034,0.033,0.001156,0.001089
11:07:36,30-Sep-21,0.034,0.033,0.001156,0.001089
11:07:36,30-Sep-21,0.034,0.033,0.001156,0.001089
11:07:36,30-Sep-21,0.034,0.033,0.001156,0.001089
11:07:36,30-Sep-21,0.034,0.033,0.001156,0.001089
11:07:36,30-Sep-21,0.034,0.033,0.001156,0.001089
11:07:36,30-Sep-21,0.034,0.033,0.001156,0.001089
11:07:36,30-Sep-21,0.034,0.033,0.001156,0.001089
11:07:36,30-Sep-21,0.034,0.033,0.001156,0.001089
11:07:36,30-Sep-21,0.034,0.033,0.001156,0.001089
11:07:36,30-Sep-21,0.034,0.033,0.001156,0.001089
11:07:36,30-Sep-21,0.034,0.032,0.001156,0.001024
11:07:36,30-Sep-21,0.034,0.032,0.001156,0.001024
11:07:36,30-Sep-21,0.034,0.032,0.001156,0.001024
11:07:36,30-Sep-21,0.034,0.032,0.001156,0.001024
11:07:36,30-Sep-21,0.034,0.032,0.001156,0.001024
11:07:36,30-Sep-21,0.034,0.032,0.001156,0.001024
11:07:36,30-Sep-21,0.034,0.032,0.001156,0.001024
11:07:36,30-Sep-21,0.0295,0.031,0.00087025,0.000961
11:07:36,30-Sep-21,0.0295,0.031,0.00087025,0.000961
11:07:36,30-Sep-21,0.0295,0.031,0.00087025,0.000961
11:07:36,30-Sep-21,0.0295,0.031,0.00087025,0.000961
11:07:36,30-Sep-21,0.0295,0.031,0.00087025,0.000961
11:07:36,30-Sep-21,0.0295,0.03,0.00087025,0.0009
11:07:36,30-Sep-21,0.0295,0.03,0.00087025,0.0009
11:07:36,30-Sep-21,0.0295,0.03,0.00087025,0.0009
11:07:36,30-Sep-21,0.0295,0.03,0.00087025,0.0009
11:07:36,30-Sep-21,0.0295,0.03,0.00087025,0.0009
11:07:36,30-Sep-21,0.0295,0.03,0.00087025,0.0009
11:07:36,30-Sep-21,0.0295,0.03,0.00087025,0.0009
11:07:36,30-Sep-21,0.0295,0.029,0.00087025,0.000841
11:07:36,30-Sep-21,0.0295,0.029,0.00087025,0.000841
11:07:36,30-Sep-21,0.0295,0.029,0.00087025,0.000841
11:07:36,30-Sep-21,0.0295,0.029,0.00087025,0.000841
11:07:36,30-Sep-21,0.0295,0.029,0.00087025,0.000841
11:07:36,30-Sep-21,0.0295,0.029,0.00087025,0.000841
11:07:36,30-Sep-21,0.0295,0.029,0.00087025,0.000841
11:07:36,30-Sep-21,0.0295,0.029,0.00087025,0.000841
11:07:36,30-Sep-21,0.0295,0.029,0.00087025,0.000841
11:07:36,30-Sep-21,0.0295,0.029,0.00087025,0.000841
11:07:36,30-Sep-21,0.0245,0.029,0.00060025,0.000841
11:07:36,30-Sep-21,0.0245,0.028,0.00060025,0.000784
11:07:36,30-Sep-21,0.0245,0.028,0.00060025,0.000784
11:07:36,30-Sep-21,0.0245,0.029,0.00060025,0.000841
11:07:36,30-Sep-21,0.0245,0.029,0.00060025,0.000841
11:07:36,30-Sep-21,0.0245,0.029,0.00060025,0.000841
11:07:36,30-Sep-21,0.0245,0.029,0.00060025,0.000841
11:07:36,30-Sep-21,0.0295,0.029,0.00087025,0.000841
11:07:36,30-Sep-21,0.0295,0.029,0.00087025,0.000841
11:07:36,30-Sep-21,0.0295,0.029,0.00087025,0.000841
11:07:36,30-Sep-21,0.0295,0.029,0.00087025,0.000841
11:07:36,30-Sep-21,0.0295,0.029,0.00087025,0.000841
11:07:36,30-Sep-21,0.0295,0.029,0.00087025,0.000841
11:07:36,30-Sep-21,0.0295,0.029,0.00087025,0.000841
11:07:36,30-Sep-21,0.0295,0.029,0.00087025,0.000841
11:07:36,30-Sep-21,0.0295,0.029,0.00087025,0.000841
11:07:36,30-Sep-21,0.0295,0.03,0.00087025,0.0009
11:07:36,30-Sep-21,0.0295,0.03,0.00087025,0.0009
11:07:36,30-Sep-21,0.0295,0.03,0.00087025,0.0009
11:07:36,30-Sep-21,0.0295,0.03,0.00087025,0.0009
11:07:36,30-Sep-21,0.0295,0.03,0.00087025,0.0009
11:07:36,30-Sep-21,0.0295,0.03,0.00087025,0.0009
11:07:36,30-Sep-21,0.0295,0.03,0.00087025,0.0009
11:07:36,30-Sep-21,0.0295,0.03,0.00087025,0.0009
11:07:36,30-Sep-21,0.0295,0.031,0.00087025,0.000961
11:07:36,30-Sep-21,0.0295,0.031,0.00087025,0.000961
11:07:36,30-Sep-21,0.034,0.031,0.001156,0.000961
11:07:36,30-Sep-21,0.034,0.031,0.001156,0.000961
11:07:36,30-Sep-21,0.034,0.031,0.001156,0.000961
11:07:36,30-Sep-21,0.034,0.031,0.001156,0.000961
11:07:36,30-Sep-21,0.034,0.031,0.001156,0.000961
11:07:36,30-Sep-21,0.034,0.031,0.001156,0.000961
11:07:36,30-Sep-21,0.034,0.031,0.001156,0.000961
11:07:36,30-Sep-21,0.034,0.031,0.001156,0.000961
11:07:36,30-Sep-21,0.034,0.031,0.001156,0.000961
11:07:36,30-Sep-21,0.034,0.032,0.001156,0.001024
11:07:36,30-Sep-21,0.034,0.032,0.001156,0.001024
11:07:36,30-Sep-21,0.034,0.032,0.001156,0.001024
11:07:36,30-Sep-21,0.034,0.032,0.001156,0.001024
11:07:36,30-Sep-21,0.034,0.032,0.001156,0.001024
11:07:36,30-Sep-21,0.034,0.032,0.001156,0.001024
11:07:36,30-Sep-21,0.034,0.032,0.001156,0.001024
11:07:36,30-Sep-21,0.034,0.032,0.001156,0.001024
11:07:36,30-Sep-21,0.034,0.032,0.001156,0.001024
11:07:36,30-Sep-21,0.034,0.032,0.001156,0.001024
11:07:36,30-Sep-21,0.034,0.032,0.001156,0.001024
11:07:36,30-Sep-21,0.0295,0.032,0.00087025,0.001024
11:07:36,30-Sep-21,0.0295,0.032,0.00087025,0.001024
11:07:36,30-Sep-21,0.0295,0.032,0.00087025,0.001024
11:07:36,30-Sep-21,0.0295,0.032,0.00087025,0.001024
11:07:36,30-Sep-21,0.0295,0.032,0.00087025,0.001024
11:07:36,30-Sep-21,0.0295,0.032,0.00087025,0.001024
11:07:36,30-Sep-21,0.0295,0.032,0.00087025,0.001024
11:07:36,30-Sep-21,0.0295,0.032,0.00087025,0.001024
11:07:36,30-Sep-21,0.0295,0.032,0.00087025,0.001024
11:07:36,30-Sep-21,0.0245,0.032,0.00060025,0.001024
11:07:36,30-Sep-21,0.0295,0.032,0.00087025,0.001024
11:07:36,30-Sep-21,0.0295,0.032,0.00087025,0.001024
11:07:36,30-Sep-21,0.0295,0.033,0.00087025,0.001089
11:07:36,30-Sep-21,0.0295,0.033,0.00087025,0.001089
11:07:36,30-Sep-21,0.0295,0.033,0.00087025,0.001089
11:07:36,30-Sep-21,0.0295,0.033,0.00087025,0.001089
11:07:36,30-Sep-21,0.0295,0.033,0.00087025,0.001089
11:07:36,30-Sep-21,0.0295,0.033,0.00087025,0.001089
11:07:36,30-Sep-21,0.0295,0.033,0.00087025,0.001089
11:07:36,30-Sep-21,0.0295,0.034,0.00087025,0.001156
11:07:36,30-Sep-21,0.0295,0.034,0.00087025,0.001156
11:07:36,30-Sep-21,0.034,0.034,0.001156,0.001156
11:07:36,30-Sep-21,0.034,0.034,0.001156,0.001156
11:07:36,30-Sep-21,0.034,0.034,0.001156,0.001156
11:07:36,30-Sep-21,0.034,0.034,0.001156,0.001156
11:07:36,30-Sep-21,0.039,0.034,0.001521,0.001156
11:07:36,30-Sep-21,0.039,0.035,0.001521,0.001225
11:07:36,30-Sep-21,0.039,0.035,0.001521,0.001225
11:07:36,30-Sep-21,0.039,0.035,0.001521,0.001225
11:07:36,30-Sep-21,0.039,0.035,0.001521,0.001225
11:07:36,30-Sep-21,0.039,0.035,0.001521,0.001225
11:07:37,30-Sep-21,0.039,0.035,0.001521,0.001225
11:07:37,30-Sep-21,0.039,0.035,0.001521,0.001225
11:07:37,30-Sep-21,0.039,0.035,0.001521,0.001225
11:07:37,30-Sep-21,0.034,0.035,0.001156,0.001225
11:07:37,30-Sep-21,0.034,0.035,0.001156,0.001225
11:07:37,30-Sep-21,0.034,0.035,0.001156,0.001225
11:07:37,30-Sep-21,0.034,0.035,0.001156,0.001225
11:07:37,30-Sep-21,0.034,0.035,0.001156,0.001225
11:07:37,30-Sep-21,0.039,0.035,0.001521,0.001225
11:07:37,30-Sep-21,0.039,0.035,0.001521,0.001225
11:07:37,30-Sep-21,0.039,0.035,0.001521,0.001225
11:07:37,30-Sep-21,0.039,0.035,0.001521,0.001225
11:07:37,30-Sep-21,0.039,0.035,0.001521,0.001225
11:07:37,30-Sep-21,0.039,0.035,0.001521,0.001225
11:07:37,30-Sep-21,0.039,0.034,0.001521,0.001156
11:07:37,30-Sep-21,0.034,0.034,0.001156,0.001156
11:07:37,30-Sep-21,0.034,0.034,0.001156,0.001156
11:07:37,30-Sep-21,0.034,0.034,0.001156,0.001156
11:07:37,30-Sep-21,0.034,0.034,0.001156,0.001156
11:07:37,30-Sep-21,0.034,0.033,0.001156,0.001089
11:07:37,30-Sep-21,0.034,0.033,0.001156,0.001089
11:07:37,30-Sep-21,0.034,0.033,0.001156,0.001089
11:07:37,30-Sep-21,0.034,0.033,0.001156,0.001089
11:07:37,30-Sep-21,0.0295,0.033,0.00087025,0.001089
11:07:37,30-Sep-21,0.0295,0.032,0.00087025,0.001024
11:07:37,30-Sep-21,0.0295,0.032,0.00087025,0.001024
11:07:37,30-Sep-21,0.0295,0.032,0.00087025,0.001024
11:07:37,30-Sep-21,0.0295,0.032,0.00087025,0.001024
11:07:37,30-Sep-21,0.0295,0.032,0.00087025,0.001024
11:07:37,30-Sep-21,0.0295,0.031,0.00087025,0.000961
11:07:37,30-Sep-21,0.0295,0.031,0.00087025,0.000961
11:07:37,30-Sep-21,0.0295,0.031,0.00087025,0.000961
11:07:37,30-Sep-21,0.0295,0.031,0.00087025,0.000961
11:07:37,30-Sep-21,0.0295,0.031,0.00087025,0.000961
11:07:37,30-Sep-21,0.0245,0.031,0.00060025,0.000961
11:07:37,30-Sep-21,0.0245,0.03,0.00060025,0.0009
11:07:37,30-Sep-21,0.0245,0.03,0.00060025,0.0009
11:07:37,30-Sep-21,0.0295,0.03,0.00087025,0.0009
11:07:37,30-Sep-21,0.0295,0.03,0.00087025,0.0009
11:07:37,30-Sep-21,0.0295,0.03,0.00087025,0.0009
11:07:37,30-Sep-21,0.0295,0.03,0.00087025,0.0009
11:07:37,30-Sep-21,0.0295,0.03,0.00087025,0.0009
11:07:37,30-Sep-21,0.0295,0.03,0.00087025,0.0009
11:07:37,30-Sep-21,0.0245,0.03,0.00060025,0.0009
11:07:37,30-Sep-21,0.0295,0.03,0.00087025,0.0009
11:07:37,30-Sep-21,0.0295,0.03,0.00087025,0.0009
11:07:37,30-Sep-21,0.0295,0.03,0.00087025,0.0009
11:07:37,30-Sep-21,0.0295,0.03,0.00087025,0.0009
11:07:37,30-Sep-21,0.0295,0.03,0.00087025,0.0009
11:07:37,30-Sep-21,0.034,0.03,0.001156,0.0009
11:07:37,30-Sep-21,0.034,0.03,0.001156,0.0009
11:07:37,30-Sep-21,0.034,0.03,0.001156,0.0009
11:07:37,30-Sep-21,0.0295,0.03,0.00087025,0.0009
11:07:37,30-Sep-21,0.0295,0.03,0.00087025,0.0009
11:07:37,30-Sep-21,0.0295,0.03,0.00087025,0.0009
11:07:37,30-Sep-21,0.034,0.03,0.001156,0.0009
11:07:37,30-Sep-21,0.034,0.03,0.001156,0.0009
11:07:37,30-Sep-21,0.034,0.03,0.001156,0.0009
11:07:37,30-Sep-21,0.034,0.03,0.001156,0.0009
11:07:37,30-Sep-21,0.034,0.03,0.001156,0.0009
11:07:37,30-Sep-21,0.034,0.031,0.001156,0.000961
11:07:37,30-Sep-21,0.034,0.031,0.001156,0.000961
11:07:37,30-Sep-21,0.034,0.031,0.001156,0.000961
11:07:37,30-Sep-21,0.0295,0.031,0.00087025,0.000961
11:07:37,30-Sep-21,0.0295,0.031,0.00087025,0.000961
11:07:37,30-Sep-21,0.0295,0.031,0.00087025,0.000961
11:07:37,30-Sep-21,0.0295,0.031,0.00087025,0.000961
11:07:37,30-Sep-21,0.0295,0.031,0.00087025,0.000961
11:07:37,30-Sep-21,0.0295,0.031,0.00087025,0.000961
11:07:37,30-Sep-21,0.0295,0.031,0.00087025,0.000961
11:07:37,30-Sep-21,0.0295,0.031,0.00087025,0.000961
11:07:37,30-Sep-21,0.0295,0.031,0.00087025,0.000961
11:07:37,30-Sep-21,0.0295,0.031,0.00087025,0.000961
11:07:37,30-Sep-21,0.0295,0.031,0.00087025,0.000961
11:07:37,30-Sep-21,0.0295,0.031,0.00087025,0.000961
11:07:37,30-Sep-21,0.0295,0.031,0.00087025,0.000961
11:07:37,30-Sep-21,0.0295,0.031,0.00087025,0.000961
11:07:37,30-Sep-21,0.0295,0.032,0.00087025,0.001024
11:07:37,30-Sep-21,0.0295,0.032,0.00087025,0.001024
11:07:37,30-Sep-21,0.0295,0.032,0.00087025,0.001024
11:07:37,30-Sep-21,0.034,0.032,0.001156,0.001024
11:07:37,30-Sep-21,0.034,0.032,0.001156,0.001024
11:07:37,30-Sep-21,0.034,0.032,0.001156,0.001024
11:07:37,30-Sep-21,0.034,0.032,0.001156,0.001024
11:07:37,30-Sep-21,0.034,0.032,0.001156,0.001024
11:07:37,30-Sep-21,0.034,0.032,0.001156,0.001024
11:07:37,30-Sep-21,0.034,0.032,0.001156,0.001024
11:07:37,30-Sep-21,0.034,0.032,0.001156,0.001024
11:07:37,30-Sep-21,0.034,0.032,0.001156,0.001024
11:07:37,30-Sep-21,0.034,0.032,0.001156,0.001024
11:07:37,30-Sep-21,0.034,0.032,0.001156,0.001024
11:07:37,30-Sep-21,0.034,0.032,0.001156,0.001024
11:07:37,30-Sep-21,0.034,0.032,0.001156,0.001024
11:07:37,30-Sep-21,0.034,0.032,0.001156,0.001024
11:07:37,30-Sep-21,0.034,0.032,0.001156,0.001024
11:07:37,30-Sep-21,0.0295,0.032,0.00087025,0.001024
11:07:37,30-Sep-21,0.0295,0.032,0.00087025,0.001024
11:07:37,30-Sep-21,0.0295,0.032,0.00087025,0.001024
11:07:37,30-Sep-21,0.0295,0.032,0.00087025,0.001024
11:07:37,30-Sep-21,0.0295,0.032,0.00087025,0.001024
11:07:37,30-Sep-21,0.0295,0.032,0.00087025,0.001024
11:07:37,30-Sep-21,0.0295,0.032,0.00087025,0.001024
11:07:37,30-Sep-21,0.0295,0.032,0.00087025,0.001024
11:07:37,30-Sep-21,0.0295,0.033,0.00087025,0.001089
11:07:37,30-Sep-21,0.0295,0.033,0.00087025,0.001089
11:07:37,30-Sep-21,0.0295,0.033,0.00087025,0.001089
11:07:37,30-Sep-21,0.0295,0.033,0.00087025,0.001089
11:07:37,30-Sep-21,0.034,0.033,0.001156,0.001089
11:07:37,30-Sep-21,0.034,0.033,0.001156,0.001089
11:07:37,30-Sep-21,0.034,0.033,0.001156,0.001089
11:07:37,30-Sep-21,0.034,0.033,0.001156,0.001089
11:07:37,30-Sep-21,0.034,0.033,0.001156,0.001089
11:07:37,30-Sep-21,0.034,0.033,0.001156,0.001089
11:07:37,30-Sep-21,0.034,0.033,0.001156,0.001089
11:07:37,30-Sep-21,0.034,0.033,0.001156,0.001089
11:07:37,30-Sep-21,0.034,0.033,0.001156,0.001089
11:07:37,30-Sep-21,0.034,0.033,0.001156,0.001089
11:07:37,30-Sep-21,0.034,0.033,0.001156,0.001089
11:07:37,30-Sep-21,0.034,0.033,0.001156,0.001089
11:07:37,30-Sep-21,0.034,0.033,0.001156,0.001089
11:07:37,30-Sep-21,0.034,0.033,0.001156,0.001089
11:07:37,30-Sep-21,0.034,0.033,0.001156,0.001089
11:07:37,30-Sep-21,0.034,0.033,0.001156,0.001089
11:07:37,30-Sep-21,0.034,0.033,0.001156,0.001089
11:07:37,30-Sep-21,0.0295,0.033,0.00087025,0.001089
11:07:37,30-Sep-21,0.0295,0.033,0.00087025,0.001089
11:07:37,30-Sep-21,0.034,0.033,0.001156,0.001089
11:07:37,30-Sep-21,0.034,0.033,0.001156,0.001089
11:07:37,30-Sep-21,0.034,0.033,0.001156,0.001089
11:07:37,30-Sep-21,0.034,0.033,0.001156,0.001089
11:07:37,30-Sep-21,0.034,0.033,0.001156,0.001089
11:07:37,30-Sep-21,0.034,0.032,0.001156,0.001024
11:07:37,30-Sep-21,0.034,0.032,0.001156,0.001024
11:07:37,30-Sep-21,0.034,0.032,0.001156,0.001024
11:07:37,30-Sep-21,0.034,0.032,0.001156,0.001024
11:07:37,30-Sep-21,0.034,0.032,0.001156,0.001024
11:07:37,30-Sep-21,0.034,0.032,0.001156,0.001024
11:07:37,30-Sep-21,0.034,0.032,0.001156,0.001024
11:07:37,30-Sep-21,0.034,0.032,0.001156,0.001024
11:07:37,30-Sep-21,0.034,0.032,0.001156,0.001024
11:07:37,30-Sep-21,0.034,0.032,0.001156,0.001024
11:07:37,30-Sep-21,0.0295,0.032,0.00087025,0.001024
11:07:37,30-Sep-21,0.0295,0.032,0.00087025,0.001024
11:07:37,30-Sep-21,0.0295,0.031,0.00087025,0.000961
11:07:37,30-Sep-21,0.0295,0.031,0.00087025,0.000961
11:07:37,30-Sep-21,0.0295,0.031,0.00087025,0.000961
11:07:37,30-Sep-21,0.0295,0.031,0.00087025,0.000961
11:07:38,30-Sep-21,0.0295,0.031,0.00087025,0.000961
11:07:38,30-Sep-21,0.0295,0.031,0.00087025,0.000961
11:07:38,30-Sep-21,0.0295,0.031,0.00087025,0.000961
11:07:38,30-Sep-21,0.0295,0.031,0.00087025,0.000961
11:07:38,30-Sep-21,0.0295,0.031,0.00087025,0.000961
11:07:38,30-Sep-21,0.0295,0.031,0.00087025,0.000961
11:07:38,30-Sep-21,0.0295,0.031,0.00087025,0.000961
11:07:38,30-Sep-21,0.0295,0.031,0.00087025,0.000961
11:07:38,30-Sep-21,0.0295,0.031,0.00087025,0.000961
11:07:38,30-Sep-21,0.0295,0.031,0.00087025,0.000961
11:07:38,30-Sep-21,0.0295,0.031,0.00087025,0.000961
11:07:38,30-Sep-21,0.0295,0.031,0.00087025,0.000961
11:07:38,30-Sep-21,0.0295,0.031,0.00087025,0.000961
11:07:38,30-Sep-21,0.0295,0.031,0.00087025,0.000961
11:07:38,30-Sep-21,0.0295,0.031,0.00087025,0.000961
11:07:38,30-Sep-21,0.0295,0.031,0.00087025,0.000961
11:07:38,30-Sep-21,0.0295,0.031,0.00087025,0.000961
11:07:38,30-Sep-21,0.0295,0.031,0.00087025,0.000961
11:07:38,30-Sep-21,0.0295,0.031,0.00087025,0.000961
11:07:38,30-Sep-21,0.034,0.032,0.001156,0.001024
11:07:38,30-Sep-21,0.034,0.032,0.001156,0.001024
11:07:38,30-Sep-21,0.034,0.032,0.001156,0.001024
11:07:38,30-Sep-21,0.034,0.032,0.001156,0.001024
11:07:38,30-Sep-21,0.034,0.032,0.001156,0.001024
11:07:38,30-Sep-21,0.039,0.032,0.001521,0.001024
11:07:38,30-Sep-21,0.039,0.032,0.001521,0.001024
11:07:38,30-Sep-21,0.034,0.032,0.001156,0.001024
11:07:38,30-Sep-21,0.034,0.032,0.001156,0.001024
11:07:38,30-Sep-21,0.034,0.032,0.001156,0.001024
11:07:38,30-Sep-21,0.034,0.032,0.001156,0.001024
11:07:38,30-Sep-21,0.034,0.032,0.001156,0.001024
11:07:38,30-Sep-21,0.0295,0.032,0.00087025,0.001024
11:07:38,30-Sep-21,0.0295,0.032,0.00087025,0.001024
11:07:38,30-Sep-21,0.0295,0.032,0.00087025,0.001024
11:07:38,30-Sep-21,0.0295,0.032,0.00087025,0.001024
11:07:38,30-Sep-21,0.0295,0.032,0.00087025,0.001024
11:07:38,30-Sep-21,0.0295,0.032,0.00087025,0.001024
11:07:38,30-Sep-21,0.0295,0.032,0.00087025,0.001024
11:07:38,30-Sep-21,0.034,0.032,0.001156,0.001024
11:07:38,30-Sep-21,0.034,0.032,0.001156,0.001024
11:07:38,30-Sep-21,0.034,0.033,0.001156,0.001089
11:07:38,30-Sep-21,0.034,0.033,0.001156,0.001089
11:07:38,30-Sep-21,0.034,0.033,0.001156,0.001089
11:07:38,30-Sep-21,0.034,0.032,0.001156,0.001024
11:07:38,30-Sep-21,0.034,0.032,0.001156,0.001024
11:07:38,30-Sep-21,0.034,0.032,0.001156,0.001024
11:07:38,30-Sep-21,0.034,0.032,0.001156,0.001024
11:07:38,30-Sep-21,0.034,0.032,0.001156,0.001024
11:07:38,30-Sep-21,0.034,0.032,0.001156,0.001024
11:07:38,30-Sep-21,0.034,0.032,0.001156,0.001024
11:07:38,30-Sep-21,0.034,0.032,0.001156,0.001024
11:07:38,30-Sep-21,0.034,0.032,0.001156,0.001024
11:07:38,30-Sep-21,0.034,0.032,0.001156,0.001024
11:07:38,30-Sep-21,0.034,0.032,0.001156,0.001024
11:07:38,30-Sep-21,0.0295,0.032,0.00087025,0.001024
11:07:38,30-Sep-21,0.0295,0.032,0.00087025,0.001024
11:07:38,30-Sep-21,0.0295,0.032,0.00087025,0.001024
11:07:38,30-Sep-21,0.0295,0.032,0.00087025,0.001024
11:07:38,30-Sep-21,0.0295,0.032,0.00087025,0.001024
11:07:38,30-Sep-21,0.0295,0.032,0.00087025,0.001024
11:07:38,30-Sep-21,0.0295,0.032,0.00087025,0.001024
11:07:38,30-Sep-21,0.0295,0.032,0.00087025,0.001024
11:07:38,30-Sep-21,0.0295,0.032,0.00087025,0.001024
11:07:38,30-Sep-21,0.0295,0.032,0.00087025,0.001024
11:07:38,30-Sep-21,0.034,0.032,0.001156,0.001024
11:07:38,30-Sep-21,0.034,0.032,0.001156,0.001024
11:07:38,30-Sep-21,0.034,0.032,0.001156,0.001024
11:07:38,30-Sep-21,0.034,0.032,0.001156,0.001024
11:07:38,30-Sep-21,0.034,0.032,0.001156,0.001024
11:07:38,30-Sep-21,0.034,0.032,0.001156,0.001024
11:07:38,30-Sep-21,0.034,0.033,0.001156,0.001089
11:07:38,30-Sep-21,0.034,0.033,0.001156,0.001089
11:07:38,30-Sep-21,0.034,0.033,0.001156,0.001089
11:07:38,30-Sep-21,0.034,0.033,0.001156,0.001089
11:07:38,30-Sep-21,0.034,0.033,0.001156,0.001089
11:07:38,30-Sep-21,0.034,0.033,0.001156,0.001089
11:07:38,30-Sep-21,0.034,0.033,0.001156,0.001089
11:07:38,30-Sep-21,0.0295,0.033,0.00087025,0.001089
11:07:38,30-Sep-21,0.0295,0.033,0.00087025,0.001089
11:07:38,30-Sep-21,0.0295,0.033,0.00087025,0.001089
11:07:38,30-Sep-21,0.034,0.033,0.001156,0.001089
11:07:38,30-Sep-21,0.034,0.033,0.001156,0.001089
11:07:38,30-Sep-21,0.0295,0.033,0.00087025,0.001089
11:07:38,30-Sep-21,0.034,0.034,0.001156,0.001156
11:07:38,30-Sep-21,0.034,0.034,0.001156,0.001156
11:07:38,30-Sep-21,0.034,0.034,0.001156,0.001156
11:07:38,30-Sep-21,0.034,0.034,0.001156,0.001156
11:07:38,30-Sep-21,0.034,0.034,0.001156,0.001156
11:07:38,30-Sep-21,0.034,0.034,0.001156,0.001156
11:07:38,30-Sep-21,0.034,0.034,0.001156,0.001156
11:07:38,30-Sep-21,0.034,0.034,0.001156,0.001156
11:07:38,30-Sep-21,0.034,0.035,0.001156,0.001225
11:07:38,30-Sep-21,0.034,0.035,0.001156,0.001225
11:07:38,30-Sep-21,0.034,0.035,0.001156,0.001225
11:07:38,30-Sep-21,0.0295,0.035,0.00087025,0.001225
11:07:38,30-Sep-21,0.034,0.035,0.001156,0.001225
11:07:38,30-Sep-21,0.034,0.035,0.001156,0.001225
11:07:38,30-Sep-21,0.034,0.035,0.001156,0.001225
11:07:38,30-Sep-21,0.034,0.035,0.001156,0.001225
11:07:38,30-Sep-21,0.039,0.035,0.001521,0.001225
11:07:38,30-Sep-21,0.039,0.035,0.001521,0.001225
11:07:38,30-Sep-21,0.039,0.035,0.001521,0.001225
11:07:38,30-Sep-21,0.039,0.036,0.001521,0.001296
11:07:38,30-Sep-21,0.039,0.036,0.001521,0.001296
11:07:38,30-Sep-21,0.039,0.036,0.001521,0.001296
11:07:38,30-Sep-21,0.034,0.036,0.001156,0.001296
11:07:38,30-Sep-21,0.034,0.036,0.001156,0.001296
11:07:38,30-Sep-21,0.034,0.036,0.001156,0.001296
11:07:38,30-Sep-21,0.034,0.036,0.001156,0.001296
11:07:38,30-Sep-21,0.039,0.036,0.001521,0.001296
11:07:38,30-Sep-21,0.039,0.036,0.001521,0.001296
11:07:38,30-Sep-21,0.039,0.036,0.001521,0.001296
11:07:38,30-Sep-21,0.039,0.036,0.001521,0.001296
11:07:38,30-Sep-21,0.039,0.036,0.001521,0.001296
11:07:38,30-Sep-21,0.039,0.036,0.001521,0.001296
11:07:38,30-Sep-21,0.034,0.036,0.001156,0.001296
11:07:38,30-Sep-21,0.034,0.036,0.001156,0.001296
11:07:38,30-Sep-21,0.034,0.036,0.001156,0.001296
11:07:39,30-Sep-21,0.034,0.035,0.001156,0.001225
11:07:39,30-Sep-21,0.034,0.035,0.001156,0.001225
11:07:39,30-Sep-21,0.034,0.035,0.001156,0.001225
11:07:39,30-Sep-21,0.034,0.035,0.001156,0.001225
11:07:39,30-Sep-21,0.034,0.035,0.001156,0.001225
11:07:39,30-Sep-21,0.034,0.035,0.001156,0.001225
11:07:39,30-Sep-21,0.034,0.035,0.001156,0.001225
11:07:39,30-Sep-21,0.034,0.035,0.001156,0.001225
11:07:39,30-Sep-21,0.034,0.035,0.001156,0.001225
11:07:39,30-Sep-21,0.034,0.035,0.001156,0.001225
11:07:39,30-Sep-21,0.034,0.035,0.001156,0.001225
11:07:39,30-Sep-21,0.034,0.035,0.001156,0.001225
11:07:39,30-Sep-21,0.034,0.035,0.001156,0.001225
11:07:39,30-Sep-21,0.034,0.035,0.001156,0.001225
11:07:39,30-Sep-21,0.034,0.034,0.001156,0.001156
11:07:39,30-Sep-21,0.034,0.034,0.001156,0.001156
11:07:39,30-Sep-21,0.034,0.034,0.001156,0.001156
11:07:39,30-Sep-21,0.034,0.034,0.001156,0.001156
11:07:39,30-Sep-21,0.034,0.034,0.001156,0.001156
11:07:39,30-Sep-21,0.034,0.034,0.001156,0.001156
11:07:39,30-Sep-21,0.034,0.034,0.001156,0.001156
11:07:39,30-Sep-21,0.034,0.034,0.001156,0.001156
11:07:39,30-Sep-21,0.034,0.034,0.001156,0.001156
11:07:39,30-Sep-21,0.034,0.034,0.001156,0.001156
11:07:39,30-Sep-21,0.034,0.034,0.001156,0.001156
11:07:39,30-Sep-21,0.034,0.034,0.001156,0.001156
11:07:39,30-Sep-21,0.034,0.034,0.001156,0.001156
11:07:39,30-Sep-21,0.034,0.034,0.001156,0.001156
11:07:39,30-Sep-21,0.034,0.034,0.001156,0.001156
11:07:39,30-Sep-21,0.034,0.034,0.001156,0.001156
11:07:39,30-Sep-21,0.034,0.033,0.001156,0.001089
11:07:39,30-Sep-21,0.034,0.033,0.001156,0.001089
11:07:39,30-Sep-21,0.034,0.033,0.001156,0.001089
11:07:39,30-Sep-21,0.034,0.033,0.001156,0.001089
11:07:39,30-Sep-21,0.034,0.033,0.001156,0.001089
11:07:39,30-Sep-21,0.034,0.033,0.001156,0.001089
11:07:39,30-Sep-21,0.034,0.033,0.001156,0.001089
11:07:39,30-Sep-21,0.034,0.033,0.001156,0.001089
11:07:39,30-Sep-21,0.034,0.033,0.001156,0.001089
11:07:39,30-Sep-21,0.034,0.033,0.001156,0.001089
11:07:39,30-Sep-21,0.034,0.033,0.001156,0.001089
11:07:39,30-Sep-21,0.034,0.033,0.001156,0.001089
11:07:39,30-Sep-21,0.034,0.033,0.001156,0.001089
11:07:39,30-Sep-21,0.0295,0.033,0.00087025,0.001089
11:07:39,30-Sep-21,0.0295,0.033,0.00087025,0.001089
11:07:39,30-Sep-21,0.0295,0.033,0.00087025,0.001089
11:07:39,30-Sep-21,0.034,0.033,0.001156,0.001089
11:07:39,30-Sep-21,0.034,0.033,0.001156,0.001089
11:07:39,30-Sep-21,0.034,0.033,0.001156,0.001089
11:07:39,30-Sep-21,0.034,0.033,0.001156,0.001089
11:07:39,30-Sep-21,0.034,0.033,0.001156,0.001089
11:07:39,30-Sep-21,0.034,0.033,0.001156,0.001089
11:07:39,30-Sep-21,0.0295,0.033,0.00087025,0.001089
11:07:39,30-Sep-21,0.0295,0.033,0.00087025,0.001089
11:07:39,30-Sep-21,0.0295,0.033,0.00087025,0.001089
11:07:39,30-Sep-21,0.0295,0.033,0.00087025,0.001089
11:07:39,30-Sep-21,0.0295,0.033,0.00087025,0.001089
11:07:39,30-Sep-21,0.0295,0.033,0.00087025,0.001089
11:07:39,30-Sep-21,0.034,0.033,0.001156,0.001089
11:07:39,30-Sep-21,0.034,0.033,0.001156,0.001089
11:07:39,30-Sep-21,0.034,0.033,0.001156,0.001089
11:07:39,30-Sep-21,0.034,0.033,0.001156,0.001089
11:07:39,30-Sep-21,0.034,0.033,0.001156,0.001089
11:07:39,30-Sep-21,0.034,0.033,0.001156,0.001089
11:07:39,30-Sep-21,0.034,0.033,0.001156,0.001089
11:07:39,30-Sep-21,0.034,0.033,0.001156,0.001089
11:07:39,30-Sep-21,0.034,0.033,0.001156,0.001089
11:07:39,30-Sep-21,0.034,0.032,0.001156,0.001024
11:07:39,30-Sep-21,0.034,0.032,0.001156,0.001024
11:07:39,30-Sep-21,0.034,0.032,0.001156,0.001024
11:07:39,30-Sep-21,0.034,0.032,0.001156,0.001024
11:07:39,30-Sep-21,0.034,0.032,0.001156,0.001024
11:07:39,30-Sep-21,0.034,0.032,0.001156,0.001024
11:07:39,30-Sep-21,0.034,0.032,0.001156,0.001024
11:07:39,30-Sep-21,0.034,0.032,0.001156,0.001024
11:07:39,30-Sep-21,0.034,0.032,0.001156,0.001024
11:07:39,30-Sep-21,0.034,0.032,0.001156,0.001024
11:07:39,30-Sep-21,0.0295,0.032,0.00087025,0.001024
11:07:39,30-Sep-21,0.0295,0.032,0.00087025,0.001024
11:07:39,30-Sep-21,0.0295,0.032,0.00087025,0.001024
11:07:39,30-Sep-21,0.0295,0.032,0.00087025,0.001024
11:07:39,30-Sep-21,0.0295,0.032,0.00087025,0.001024
11:07:39,30-Sep-21,0.0295,0.032,0.00087025,0.001024
11:07:39,30-Sep-21,0.0295,0.032,0.00087025,0.001024
11:07:39,30-Sep-21,0.0295,0.032,0.00087025,0.001024
11:07:39,30-Sep-21,0.0295,0.032,0.00087025,0.001024
11:07:39,30-Sep-21,0.0295,0.032,0.00087025,0.001024
11:07:39,30-Sep-21,0.0295,0.032,0.00087025,0.001024
11:07:39,30-Sep-21,0.0295,0.032,0.00087025,0.001024
11:07:39,30-Sep-21,0.0295,0.031,0.00087025,0.000961
11:07:39,30-Sep-21,0.034,0.031,0.001156,0.000961
11:07:39,30-Sep-21,0.034,0.031,0.001156,0.000961
11:07:39,30-Sep-21,0.034,0.031,0.001156,0.000961
11:07:39,30-Sep-21,0.034,0.031,0.001156,0.000961
11:07:39,30-Sep-21,0.034,0.031,0.001156,0.000961
11:07:39,30-Sep-21,0.034,0.031,0.001156,0.000961
11:07:39,30-Sep-21,0.034,0.031,0.001156,0.000961
11:07:39,30-Sep-21,0.0295,0.031,0.00087025,0.000961
11:07:39,30-Sep-21,0.0295,0.031,0.00087025,0.000961
11:07:39,30-Sep-21,0.0295,0.031,0.00087025,0.000961
11:07:39,30-Sep-21,0.0295,0.031,0.00087025,0.000961
11:07:39,30-Sep-21,0.0295,0.031,0.00087025,0.000961
11:07:39,30-Sep-21,0.0295,0.031,0.00087025,0.000961
11:07:39,30-Sep-21,0.034,0.031,0.001156,0.000961
11:07:39,30-Sep-21,0.034,0.031,0.001156,0.000961
11:07:39,30-Sep-21,0.034,0.031,0.001156,0.000961
11:07:39,30-Sep-21,0.034,0.031,0.001156,0.000961
11:07:39,30-Sep-21,0.0295,0.031,0.00087025,0.000961
11:07:39,30-Sep-21,0.0295,0.031,0.00087025,0.000961
11:07:39,30-Sep-21,0.0295,0.03,0.00087025,0.0009
11:07:39,30-Sep-21,0.0295,0.03,0.00087025,0.0009
11:07:39,30-Sep-21,0.0295,0.03,0.00087025,0.0009
11:07:39,30-Sep-21,0.0295,0.03,0.00087025,0.0009
11:07:39,30-Sep-21,0.0295,0.03,0.00087025,0.0009
11:07:39,30-Sep-21,0.0295,0.03,0.00087025,0.0009
11:07:39,30-Sep-21,0.034,0.03,0.001156,0.0009
11:07:39,30-Sep-21,0.034,0.03,0.001156,0.0009
11:07:39,30-Sep-21,0.034,0.03,0.001156,0.0009
11:07:39,30-Sep-21,0.0295,0.03,0.00087025,0.0009
11:07:39,30-Sep-21,0.0295,0.03,0.00087025,0.0009
11:07:39,30-Sep-21,0.0295,0.03,0.00087025,0.0009
11:07:39,30-Sep-21,0.0295,0.03,0.00087025,0.0009
11:07:39,30-Sep-21,0.0295,0.03,0.00087025,0.0009
11:07:39,30-Sep-21,0.0295,0.03,0.00087025,0.0009
11:07:39,30-Sep-21,0.0295,0.03,0.00087025,0.0009
11:07:39,30-Sep-21,0.0295,0.03,0.00087025,0.0009
11:07:39,30-Sep-21,0.0295,0.03,0.00087025,0.0009
11:07:39,30-Sep-21,0.0295,0.031,0.00087025,0.000961
11:07:39,30-Sep-21,0.0245,0.031,0.00060025,0.000961
11:07:40,30-Sep-21,0.0245,0.031,0.00060025,0.000961
11:07:40,30-Sep-21,0.0245,0.031,0.00060025,0.000961
11:07:40,30-Sep-21,0.0295,0.031,0.00087025,0.000961
11:07:40,30-Sep-21,0.0295,0.031,0.00087025,0.000961
11:07:40,30-Sep-21,0.0295,0.031,0.00087025,0.000961
11:07:40,30-Sep-21,0.0295,0.031,0.00087025,0.000961
11:07:40,30-Sep-21,0.0295,0.031,0.00087025,0.000961
11:07:40,30-Sep-21,0.0295,0.031,0.00087025,0.000961
11:07:40,30-Sep-21,0.034,0.031,0.001156,0.000961
11:07:40,30-Sep-21,0.034,0.031,0.001156,0.000961
11:07:40,30-Sep-21,0.034,0.032,0.001156,0.001024
11:07:40,30-Sep-21,0.034,0.032,0.001156,0.001024
11:07:40,30-Sep-21,0.034,0.032,0.001156,0.001024
11:07:40,30-Sep-21,0.034,0.032,0.001156,0.001024
11:07:40,30-Sep-21,0.034,0.032,0.001156,0.001024
11:07:40,30-Sep-21,0.034,0.032,0.001156,0.001024
11:07:40,30-Sep-21,0.034,0.032,0.001156,0.001024
11:07:40,30-Sep-21,0.034,0.032,0.001156,0.001024
11:07:40,30-Sep-21,0.034,0.032,0.001156,0.001024
11:07:40,30-Sep-21,0.034,0.032,0.001156,0.001024
11:07:40,30-Sep-21,0.034,0.032,0.001156,0.001024
11:07:40,30-Sep-21,0.034,0.032,0.001156,0.001024
11:07:40,30-Sep-21,0.034,0.032,0.001156,0.001024
11:07:40,30-Sep-21,0.034,0.033,0.001156,0.001089
11:07:40,30-Sep-21,0.034,0.033,0.001156,0.001089
11:07:40,30-Sep-21,0.034,0.033,0.001156,0.001089
11:07:40,30-Sep-21,0.034,0.033,0.001156,0.001089
11:07:40,30-Sep-21,0.034,0.033,0.001156,0.001089
11:07:40,30-Sep-21,0.034,0.033,0.001156,0.001089
11:07:40,30-Sep-21,0.034,0.033,0.001156,0.001089
11:07:40,30-Sep-21,0.034,0.033,0.001156,0.001089
11:07:40,30-Sep-21,0.034,0.033,0.001156,0.001089
11:07:40,30-Sep-21,0.034,0.033,0.001156,0.001089
11:07:40,30-Sep-21,0.0295,0.033,0.00087025,0.001089
11:07:40,30-Sep-21,0.0295,0.033,0.00087025,0.001089
11:07:40,30-Sep-21,0.0295,0.033,0.00087025,0.001089
11:07:40,30-Sep-21,0.0295,0.033,0.00087025,0.001089
11:07:40,30-Sep-21,0.0295,0.033,0.00087025,0.001089
11:07:40,30-Sep-21,0.0295,0.033,0.00087025,0.001089
11:07:40,30-Sep-21,0.0295,0.033,0.00087025,0.001089
11:07:40,30-Sep-21,0.0295,0.033,0.00087025,0.001089
11:07:40,30-Sep-21,0.0295,0.033,0.00087025,0.001089
11:07:40,30-Sep-21,0.0295,0.033,0.00087025,0.001089
11:07:40,30-Sep-21,0.0295,0.033,0.00087025,0.001089
11:07:40,30-Sep-21,0.034,0.033,0.001156,0.001089
11:07:40,30-Sep-21,0.034,0.033,0.001156,0.001089
11:07:40,30-Sep-21,0.034,0.033,0.001156,0.001089
11:07:40,30-Sep-21,0.034,0.033,0.001156,0.001089
11:07:40,30-Sep-21,0.034,0.033,0.001156,0.001089
11:07:40,30-Sep-21,0.034,0.033,0.001156,0.001089
11:07:40,30-Sep-21,0.034,0.033,0.001156,0.001089
11:07:40,30-Sep-21,0.039,0.033,0.001521,0.001089
11:07:40,30-Sep-21,0.034,0.033,0.001156,0.001089
11:07:40,30-Sep-21,0.034,0.033,0.001156,0.001089
11:07:40,30-Sep-21,0.034,0.033,0.001156,0.001089
11:07:40,30-Sep-21,0.034,0.033,0.001156,0.001089
11:07:40,30-Sep-21,0.034,0.033,0.001156,0.001089
11:07:40,30-Sep-21,0.034,0.033,0.001156,0.001089
11:07:40,30-Sep-21,0.034,0.033,0.001156,0.001089
11:07:40,30-Sep-21,0.0295,0.033,0.00087025,0.001089
11:07:40,30-Sep-21,0.0295,0.033,0.00087025,0.001089
11:07:40,30-Sep-21,0.034,0.033,0.001156,0.001089
11:07:40,30-Sep-21,0.034,0.033,0.001156,0.001089
11:07:40,30-Sep-21,0.034,0.033,0.001156,0.001089
11:07:40,30-Sep-21,0.034,0.033,0.001156,0.001089
11:07:40,30-Sep-21,0.034,0.033,0.001156,0.001089
11:07:40,30-Sep-21,0.034,0.033,0.001156,0.001089
11:07:40,30-Sep-21,0.034,0.033,0.001156,0.001089
11:07:40,30-Sep-21,0.034,0.033,0.001156,0.001089
11:07:40,30-Sep-21,0.034,0.033,0.001156,0.001089
11:07:40,30-Sep-21,0.034,0.033,0.001156,0.001089
11:07:40,30-Sep-21,0.034,0.033,0.001156,0.001089
11:07:40,30-Sep-21,0.0295,0.033,0.00087025,0.001089
11:07:40,30-Sep-21,0.0295,0.033,0.00087025,0.001089
11:07:40,30-Sep-21,0.0295,0.033,0.00087025,0.001089
11:07:40,30-Sep-21,0.034,0.034,0.001156,0.001156
11:07:40,30-Sep-21,0.034,0.034,0.001156,0.001156
11:07:40,30-Sep-21,0.034,0.034,0.001156,0.001156
11:07:40,30-Sep-21,0.034,0.034,0.001156,0.001156
11:07:40,30-Sep-21,0.034,0.034,0.001156,0.001156
11:07:40,30-Sep-21,0.034,0.034,0.001156,0.001156
11:07:40,30-Sep-21,0.034,0.034,0.001156,0.001156
11:07:40,30-Sep-21,0.034,0.034,0.001156,0.001156
11:07:40,30-Sep-21,0.034,0.034,0.001156,0.001156
11:07:40,30-Sep-21,0.034,0.034,0.001156,0.001156
11:07:40,30-Sep-21,0.034,0.034,0.001156,0.001156
11:07:40,30-Sep-21,0.034,0.034,0.001156,0.001156
11:07:40,30-Sep-21,0.034,0.034,0.001156,0.001156
11:07:40,30-Sep-21,0.034,0.034,0.001156,0.001156
11:07:40,30-Sep-21,0.034,0.034,0.001156,0.001156
11:07:40,30-Sep-21,0.034,0.034,0.001156,0.001156
11:07:40,30-Sep-21,0.034,0.034,0.001156,0.001156
11:07:40,30-Sep-21,0.034,0.034,0.001156,0.001156
11:07:40,30-Sep-21,0.034,0.034,0.001156,0.001156
11:07:40,30-Sep-21,0.034,0.034,0.001156,0.001156
11:07:40,30-Sep-21,0.034,0.034,0.001156,0.001156
11:07:40,30-Sep-21,0.034,0.034,0.001156,0.001156
11:07:40,30-Sep-21,0.034,0.034,0.001156,0.001156
11:07:40,30-Sep-21,0.034,0.034,0.001156,0.001156
11:07:40,30-Sep-21,0.034,0.034,0.001156,0.001156
11:07:40,30-Sep-21,0.034,0.034,0.001156,0.001156
11:07:40,30-Sep-21,0.034,0.034,0.001156,0.001156
11:07:40,30-Sep-21,0.034,0.034,0.001156,0.001156
11:07:40,30-Sep-21,0.034,0.034,0.001156,0.001156
11:07:40,30-Sep-21,0.034,0.034,0.001156,0.001156
11:07:40,30-Sep-21,0.034,0.034,0.001156,0.001156
11:07:40,30-Sep-21,0.034,0.034,0.001156,0.001156
11:07:40,30-Sep-21,0.034,0.034,0.001156,0.001156
11:07:40,30-Sep-21,0.034,0.034,0.001156,0.001156
11:07:40,30-Sep-21,0.034,0.034,0.001156,0.001156
11:07:40,30-Sep-21,0.034,0.034,0.001156,0.001156
11:07:40,30-Sep-21,0.034,0.034,0.001156,0.001156
11:07:40,30-Sep-21,0.034,0.034,0.001156,0.001156
11:07:40,30-Sep-21,0.034,0.033,0.001156,0.001089
11:07:40,30-Sep-21,0.034,0.033,0.001156,0.001089
11:07:40,30-Sep-21,0.0295,0.033,0.00087025,0.001089
11:07:40,30-Sep-21,0.0295,0.033,0.00087025,0.001089
11:07:40,30-Sep-21,0.0295,0.033,0.00087025,0.001089
11:07:40,30-Sep-21,0.0295,0.033,0.00087025,0.001089
11:07:40,30-Sep-21,0.034,0.033,0.001156,0.001089
11:07:40,30-Sep-21,0.034,0.033,0.001156,0.001089
11:07:41,30-Sep-21,0.034,0.033,0.001156,0.001089
11:07:41,30-Sep-21,0.034,0.033,0.001156,0.001089
11:07:41,30-Sep-21,0.034,0.033,0.001156,0.001089
11:07:41,30-Sep-21,0.034,0.033,0.001156,0.001089
11:07:41,30-Sep-21,0.034,0.033,0.001156,0.001089
11:07:41,30-Sep-21,0.034,0.033,0.001156,0.001089
11:07:41,30-Sep-21,0.034,0.033,0.001156,0.001089
11:07:41,30-Sep-21,0.034,0.033,0.001156,0.001089
11:07:41,30-Sep-21,0.034,0.033,0.001156,0.001089
11:07:41,30-Sep-21,0.034,0.033,0.001156,0.001089
11:07:41,30-Sep-21,0.034,0.033,0.001156,0.001089
11:07:41,30-Sep-21,0.034,0.033,0.001156,0.001089
11:07:41,30-Sep-21,0.034,0.033,0.001156,0.001089
11:07:41,30-Sep-21,0.034,0.033,0.001156,0.001089
11:07:41,30-Sep-21,0.034,0.033,0.001156,0.001089
11:07:41,30-Sep-21,0.034,0.033,0.001156,0.001089
11:07:41,30-Sep-21,0.034,0.033,0.001156,0.001089
11:07:41,30-Sep-21,0.034,0.033,0.001156,0.001089
11:07:41,30-Sep-21,0.034,0.033,0.001156,0.001089
11:07:41,30-Sep-21,0.034,0.033,0.001156,0.001089
11:07:41,30-Sep-21,0.034,0.033,0.001156,0.001089
11:07:41,30-Sep-21,0.034,0.033,0.001156,0.001089
11:07:41,30-Sep-21,0.034,0.033,0.001156,0.001089
11:07:41,30-Sep-21,0.0295,0.033,0.00087025,0.001089
11:07:41,30-Sep-21,0.0295,0.033,0.00087025,0.001089
11:07:41,30-Sep-21,0.0295,0.033,0.00087025,0.001089
11:07:41,30-Sep-21,0.0295,0.033,0.00087025,0.001089
11:07:41,30-Sep-21,0.0295,0.033,0.00087025,0.001089
11:07:41,30-Sep-21,0.0295,0.033,0.00087025,0.001089
11:07:41,30-Sep-21,0.0295,0.033,0.00087025,0.001089
11:07:41,30-Sep-21,0.034,0.033,0.001156,0.001089
11:07:41,30-Sep-21,0.034,0.033,0.001156,0.001089
11:07:41,30-Sep-21,0.0295,0.033,0.00087025,0.001089
11:07:41,30-Sep-21,0.0295,0.033,0.00087025,0.001089
11:07:41,30-Sep-21,0.0295,0.033,0.00087025,0.001089
11:07:41,30-Sep-21,0.034,0.033,0.001156,0.001089
11:07:41,30-Sep-21,0.034,0.033,0.001156,0.001089
11:07:41,30-Sep-21,0.034,0.033,0.001156,0.001089
11:07:41,30-Sep-21,0.034,0.033,0.001156,0.001089
11:07:41,30-Sep-21,0.034,0.033,0.001156,0.001089
11:07:41,30-Sep-21,0.034,0.033,0.001156,0.001089
11:07:41,30-Sep-21,0.034,0.033,0.001156,0.001089
11:07:41,30-Sep-21,0.034,0.033,0.001156,0.001089
11:07:41,30-Sep-21,0.034,0.033,0.001156,0.001089
11:07:41,30-Sep-21,0.034,0.033,0.001156,0.001089
11:07:41,30-Sep-21,0.034,0.033,0.001156,0.001089
11:07:41,30-Sep-21,0.034,0.033,0.001156,0.001089
11:07:41,30-Sep-21,0.034,0.033,0.001156,0.001089
11:07:41,30-Sep-21,0.034,0.033,0.001156,0.001089
11:07:41,30-Sep-21,0.034,0.033,0.001156,0.001089
11:07:41,30-Sep-21,0.034,0.033,0.001156,0.001089
11:07:41,30-Sep-21,0.034,0.033,0.001156,0.001089
11:07:41,30-Sep-21,0.034,0.033,0.001156,0.001089
11:07:41,30-Sep-21,0.034,0.033,0.001156,0.001089
11:07:41,30-Sep-21,0.034,0.033,0.001156,0.001089
11:07:41,30-Sep-21,0.034,0.032,0.001156,0.001024
11:07:41,30-Sep-21,0.034,0.032,0.001156,0.001024
11:07:41,30-Sep-21,0.034,0.032,0.001156,0.001024
11:07:41,30-Sep-21,0.034,0.032,0.001156,0.001024
11:07:41,30-Sep-21,0.034,0.032,0.001156,0.001024
11:07:41,30-Sep-21,0.034,0.032,0.001156,0.001024
11:07:41,30-Sep-21,0.034,0.032,0.001156,0.001024
11:07:41,30-Sep-21,0.034,0.032,0.001156,0.001024
11:07:41,30-Sep-21,0.034,0.032,0.001156,0.001024
11:07:41,30-Sep-21,0.0295,0.032,0.00087025,0.001024
11:07:41,30-Sep-21,0.0295,0.032,0.00087025,0.001024
11:07:41,30-Sep-21,0.0295,0.032,0.00087025,0.001024
11:07:41,30-Sep-21,0.0295,0.032,0.00087025,0.001024
11:07:41,30-Sep-21,0.0295,0.032,0.00087025,0.001024
11:07:41,30-Sep-21,0.0295,0.032,0.00087025,0.001024
11:07:41,30-Sep-21,0.0295,0.032,0.00087025,0.001024
11:07:41,30-Sep-21,0.0295,0.032,0.00087025,0.001024
11:07:41,30-Sep-21,0.0295,0.032,0.00087025,0.001024
11:07:41,30-Sep-21,0.0295,0.032,0.00087025,0.001024
11:07:41,30-Sep-21,0.0295,0.032,0.00087025,0.001024
11:07:41,30-Sep-21,0.0295,0.032,0.00087025,0.001024
11:07:41,30-Sep-21,0.0295,0.032,0.00087025,0.001024
11:07:41,30-Sep-21,0.0295,0.032,0.00087025,0.001024
11:07:41,30-Sep-21,0.0295,0.032,0.00087025,0.001024
11:07:41,30-Sep-21,0.0295,0.032,0.00087025,0.001024
11:07:41,30-Sep-21,0.0295,0.032,0.00087025,0.001024
11:07:41,30-Sep-21,0.0295,0.032,0.00087025,0.001024
11:07:41,30-Sep-21,0.0295,0.032,0.00087025,0.001024
11:07:41,30-Sep-21,0.034,0.032,0.001156,0.001024
11:07:41,30-Sep-21,0.034,0.032,0.001156,0.001024
11:07:41,30-Sep-21,0.034,0.032,0.001156,0.001024
11:07:41,30-Sep-21,0.034,0.032,0.001156,0.001024
11:07:41,30-Sep-21,0.034,0.032,0.001156,0.001024
11:07:41,30-Sep-21,0.034,0.032,0.001156,0.001024
11:07:41,30-Sep-21,0.034,0.033,0.001156,0.001089
11:07:41,30-Sep-21,0.034,0.033,0.001156,0.001089
11:07:41,30-Sep-21,0.034,0.033,0.001156,0.001089
11:07:41,30-Sep-21,0.034,0.033,0.001156,0.001089
11:07:41,30-Sep-21,0.034,0.033,0.001156,0.001089
11:07:41,30-Sep-21,0.034,0.033,0.001156,0.001089
11:07:41,30-Sep-21,0.034,0.033,0.001156,0.001089
11:07:41,30-Sep-21,0.034,0.033,0.001156,0.001089
11:07:41,30-Sep-21,0.034,0.033,0.001156,0.001089
11:07:41,30-Sep-21,0.034,0.034,0.001156,0.001156
11:07:41,30-Sep-21,0.034,0.034,0.001156,0.001156
11:07:41,30-Sep-21,0.034,0.034,0.001156,0.001156
11:07:41,30-Sep-21,0.034,0.034,0.001156,0.001156
11:07:41,30-Sep-21,0.034,0.034,0.001156,0.001156
11:07:41,30-Sep-21,0.034,0.034,0.001156,0.001156
11:07:41,30-Sep-21,0.039,0.034,0.001521,0.001156
11:07:41,30-Sep-21,0.034,0.034,0.001156,0.001156
11:07:41,30-Sep-21,0.034,0.034,0.001156,0.001156
11:07:41,30-Sep-21,0.034,0.034,0.001156,0.001156
11:07:41,30-Sep-21,0.034,0.034,0.001156,0.001156
11:07:41,30-Sep-21,0.034,0.034,0.001156,0.001156
11:07:41,30-Sep-21,0.034,0.035,0.001156,0.001225
11:07:41,30-Sep-21,0.034,0.035,0.001156,0.001225
11:07:41,30-Sep-21,0.034,0.035,0.001156,0.001225
11:07:41,30-Sep-21,0.034,0.035,0.001156,0.001225
11:07:41,30-Sep-21,0.034,0.035,0.001156,0.001225
11:07:41,30-Sep-21,0.034,0.035,0.001156,0.001225
11:07:41,30-Sep-21,0.034,0.035,0.001156,0.001225
11:07:41,30-Sep-21,0.034,0.035,0.001156,0.001225
11:07:41,30-Sep-21,0.034,0.035,0.001156,0.001225
11:07:41,30-Sep-21,0.034,0.035,0.001156,0.001225
11:07:41,30-Sep-21,0.034,0.035,0.001156,0.001225
11:07:41,30-Sep-21,0.034,0.035,0.001156,0.001225
11:07:41,30-Sep-21,0.034,0.035,0.001156,0.001225
11:07:41,30-Sep-21,0.034,0.035,0.001156,0.001225
11:07:41,30-Sep-21,0.034,0.035,0.001156,0.001225
11:07:41,30-Sep-21,0.034,0.035,0.001156,0.001225
11:07:41,30-Sep-21,0.034,0.035,0.001156,0.001225
11:07:41,30-Sep-21,0.034,0.035,0.001156,0.001225
11:07:42,30-Sep-21,0.034,0.035,0.001156,0.001225
11:07:42,30-Sep-21,0.034,0.035,0.001156,0.001225
11:07:42,30-Sep-21,0.039,0.035,0.001521,0.001225
11:07:42,30-Sep-21,0.039,0.035,0.001521,0.001225
11:07:42,30-Sep-21,0.039,0.035,0.001521,0.001225
11:07:42,30-Sep-21,0.034,0.035,0.001156,0.001225
11:07:42,30-Sep-21,0.034,0.035,0.001156,0.001225
11:07:42,30-Sep-21,0.039,0.035,0.001521,0.001225
11:07:42,30-Sep-21,0.039,0.035,0.001521,0.001225
11:07:42,30-Sep-21,0.034,0.035,0.001156,0.001225
11:07:42,30-Sep-21,0.039,0.035,0.001521,0.001225
11:07:42,30-Sep-21,0.039,0.035,0.001521,0.001225
11:07:42,30-Sep-21,0.039,0.035,0.001521,0.001225
11:07:42,30-Sep-21,0.039,0.034,0.001521,0.001156
11:07:42,30-Sep-21,0.034,0.034,0.001156,0.001156
11:07:42,30-Sep-21,0.034,0.034,0.001156,0.001156
11:07:42,30-Sep-21,0.034,0.034,0.001156,0.001156
11:07:42,30-Sep-21,0.034,0.034,0.001156,0.001156
11:07:42,30-Sep-21,0.0295,0.034,0.00087025,0.001156
11:07:42,30-Sep-21,0.0295,0.034,0.00087025,0.001156
11:07:42,30-Sep-21,0.0295,0.034,0.00087025,0.001156
11:07:42,30-Sep-21,0.0295,0.034,0.00087025,0.001156
11:07:42,30-Sep-21,0.0295,0.034,0.00087025,0.001156
11:07:42,30-Sep-21,0.0295,0.034,0.00087025,0.001156
11:07:42,30-Sep-21,0.0295,0.034,0.00087025,0.001156
11:07:42,30-Sep-21,0.0295,0.034,0.00087025,0.001156
11:07:42,30-Sep-21,0.034,0.034,0.001156,0.001156
11:07:42,30-Sep-21,0.034,0.034,0.001156,0.001156
11:07:42,30-Sep-21,0.034,0.034,0.001156,0.001156
11:07:42,30-Sep-21,0.034,0.033,0.001156,0.001089
11:07:42,30-Sep-21,0.034,0.033,0.001156,0.001089
11:07:42,30-Sep-21,0.0295,0.033,0.00087025,0.001089
11:07:42,30-Sep-21,0.034,0.033,0.001156,0.001089
11:07:42,30-Sep-21,0.034,0.033,0.001156,0.001089
11:07:42,30-Sep-21,0.034,0.033,0.001156,0.001089
11:07:42,30-Sep-21,0.034,0.033,0.001156,0.001089
11:07:42,30-Sep-21,0.034,0.033,0.001156,0.001089
11:07:42,30-Sep-21,0.034,0.033,0.001156,0.001089
11:07:42,30-Sep-21,0.034,0.033,0.001156,0.001089
11:07:42,30-Sep-21,0.034,0.033,0.001156,0.001089
11:07:42,30-Sep-21,0.034,0.033,0.001156,0.001089
11:07:42,30-Sep-21,0.034,0.033,0.001156,0.001089
11:07:42,30-Sep-21,0.034,0.033,0.001156,0.001089
11:07:42,30-Sep-21,0.034,0.033,0.001156,0.001089
11:07:42,30-Sep-21,0.034,0.033,0.001156,0.001089
11:07:42,30-Sep-21,0.034,0.032,0.001156,0.001024
11:07:42,30-Sep-21,0.034,0.032,0.001156,0.001024
11:07:42,30-Sep-21,0.034,0.032,0.001156,0.001024
11:07:42,30-Sep-21,0.034,0.032,0.001156,0.001024
11:07:42,30-Sep-21,0.034,0.032,0.001156,0.001024
11:07:42,30-Sep-21,0.034,0.032,0.001156,0.001024
11:07:42,30-Sep-21,0.034,0.032,0.001156,0.001024
11:07:42,30-Sep-21,0.034,0.032,0.001156,0.001024
11:07:42,30-Sep-21,0.034,0.032,0.001156,0.001024
11:07:42,30-Sep-21,0.034,0.032,0.001156,0.001024
11:07:42,30-Sep-21,0.0295,0.032,0.00087025,0.001024
11:07:42,30-Sep-21,0.0295,0.031,0.00087025,0.000961
11:07:42,30-Sep-21,0.0295,0.031,0.00087025,0.000961
11:07:42,30-Sep-21,0.0295,0.031,0.00087025,0.000961
11:07:42,30-Sep-21,0.0295,0.031,0.00087025,0.000961
11:07:42,30-Sep-21,0.0295,0.031,0.00087025,0.000961
11:07:42,30-Sep-21,0.0295,0.031,0.00087025,0.000961
11:07:42,30-Sep-21,0.0295,0.031,0.00087025,0.000961
11:07:42,30-Sep-21,0.0295,0.031,0.00087025,0.000961
11:07:42,30-Sep-21,0.0295,0.031,0.00087025,0.000961
11:07:42,30-Sep-21,0.0295,0.031,0.00087025,0.000961
11:07:42,30-Sep-21,0.0295,0.031,0.00087025,0.000961
11:07:42,30-Sep-21,0.0295,0.031,0.00087025,0.000961
11:07:42,30-Sep-21,0.0295,0.03,0.00087025,0.0009
11:07:42,30-Sep-21,0.0295,0.03,0.00087025,0.0009
11:07:42,30-Sep-21,0.0295,0.03,0.00087025,0.0009
11:07:42,30-Sep-21,0.0295,0.03,0.00087025,0.0009
11:07:42,30-Sep-21,0.0295,0.03,0.00087025,0.0009
11:07:42,30-Sep-21,0.0295,0.03,0.00087025,0.0009
11:07:42,30-Sep-21,0.0295,0.03,0.00087025,0.0009
11:07:42,30-Sep-21,0.0295,0.03,0.00087025,0.0009
11:07:42,30-Sep-21,0.0295,0.03,0.00087025,0.0009
11:07:42,30-Sep-21,0.034,0.03,0.001156,0.0009
11:07:42,30-Sep-21,0.034,0.03,0.001156,0.0009
11:07:42,30-Sep-21,0.0295,0.03,0.00087025,0.0009
11:07:42,30-Sep-21,0.0295,0.03,0.00087025,0.0009
11:07:42,30-Sep-21,0.0295,0.03,0.00087025,0.0009
11:07:42,30-Sep-21,0.034,0.03,0.001156,0.0009
11:07:42,30-Sep-21,0.0295,0.03,0.00087025,0.0009
11:07:42,30-Sep-21,0.0295,0.03,0.00087025,0.0009
11:07:42,30-Sep-21,0.0295,0.03,0.00087025,0.0009
11:07:42,30-Sep-21,0.0295,0.03,0.00087025,0.0009
11:07:42,30-Sep-21,0.0295,0.03,0.00087025,0.0009
11:07:42,30-Sep-21,0.0295,0.03,0.00087025,0.0009
11:07:42,30-Sep-21,0.0295,0.03,0.00087025,0.0009
11:07:42,30-Sep-21,0.0295,0.03,0.00087025,0.0009
11:07:42,30-Sep-21,0.0295,0.03,0.00087025,0.0009
11:07:42,30-Sep-21,0.0295,0.03,0.00087025,0.0009
11:07:42,30-Sep-21,0.0295,0.03,0.00087025,0.0009
11:07:42,30-Sep-21,0.0295,0.03,0.00087025,0.0009
11:07:42,30-Sep-21,0.0295,0.03,0.00087025,0.0009
11:07:42,30-Sep-21,0.0295,0.03,0.00087025,0.0009
11:07:43,30-Sep-21,0.0295,0.03,0.00087025,0.0009
11:07:43,30-Sep-21,0.0295,0.03,0.00087025,0.0009
11:07:43,30-Sep-21,0.0295,0.03,0.00087025,0.0009
11:07:43,30-Sep-21,0.0295,0.03,0.00087025,0.0009
11:07:43,30-Sep-21,0.0295,0.03,0.00087025,0.0009
11:07:43,30-Sep-21,0.0295,0.03,0.00087025,0.0009
11:07:43,30-Sep-21,0.0295,0.03,0.00087025,0.0009
11:07:43,30-Sep-21,0.0295,0.03,0.00087025,0.0009
11:07:43,30-Sep-21,0.0295,0.03,0.00087025,0.0009
11:07:43,30-Sep-21,0.0295,0.029,0.00087025,0.000841
