Time,Date,EMG Value (V),Filtered Value (V),,
11:10:54,30-Sep-21,0.049,0.049,0.002401,0.002401
11:10:54,30-Sep-21,0.049,0.049,0.002401,0.002401
11:10:54,30-Sep-21,0.049,0.048,0.002401,0.002304
11:10:54,30-Sep-21,0.049,0.048,0.002401,0.002304
11:10:54,30-Sep-21,0.044,0.048,0.001936,0.002304
11:10:54,30-Sep-21,0.049,0.048,0.002401,0.002304
11:10:54,30-Sep-21,0.049,0.048,0.002401,0.002304
11:10:54,30-Sep-21,0.049,0.047,0.002401,0.002209
11:10:54,30-Sep-21,0.049,0.047,0.002401,0.002209
11:10:54,30-Sep-21,0.049,0.047,0.002401,0.002209
11:10:54,30-Sep-21,0.044,0.047,0.001936,0.002209
11:10:54,30-Sep-21,0.044,0.047,0.001936,0.002209
11:10:54,30-Sep-21,0.044,0.047,0.001936,0.002209
11:10:54,30-Sep-21,0.044,0.047,0.001936,0.002209
11:10:54,30-Sep-21,0.044,0.046,0.001936,0.002116
11:10:54,30-Sep-21,0.044,0.046,0.001936,0.002116
11:10:54,30-Sep-21,0.044,0.046,0.001936,0.002116
11:10:54,30-Sep-21,0.044,0.046,0.001936,0.002116
11:10:54,30-Sep-21,0.044,0.046,0.001936,0.002116
11:10:54,30-Sep-21,0.044,0.046,0.001936,0.002116
11:10:54,30-Sep-21,0.044,0.046,0.001936,0.002116
11:10:54,30-Sep-21,0.044,0.046,0.001936,0.002116
11:10:54,30-Sep-21,0.044,0.046,0.001936,0.002116
11:10:54,30-Sep-21,0.044,0.046,0.001936,0.002116
11:10:54,30-Sep-21,0.044,0.046,0.001936,0.002116
11:10:54,30-Sep-21,0.044,0.046,0.001936,0.002116
11:10:54,30-Sep-21,0.049,0.046,0.002401,0.002116
11:10:54,30-Sep-21,0.049,0.046,0.002401,0.002116
11:10:54,30-Sep-21,0.049,0.046,0.002401,0.002116
11:10:54,30-Sep-21,0.049,0.046,0.002401,0.002116
11:10:54,30-Sep-21,0.049,0.046,0.002401,0.002116
11:10:54,30-Sep-21,0.049,0.046,0.002401,0.002116
11:10:54,30-Sep-21,0.049,0.046,0.002401,0.002116
11:10:54,30-Sep-21,0.049,0.046,0.002401,0.002116
11:10:54,30-Sep-21,0.049,0.046,0.002401,0.002116
11:10:54,30-Sep-21,0.049,0.046,0.002401,0.002116
11:10:54,30-Sep-21,0.049,0.046,0.002401,0.002116
11:10:54,30-Sep-21,0.049,0.046,0.002401,0.002116
11:10:54,30-Sep-21,0.049,0.046,0.002401,0.002116
11:10:54,30-Sep-21,0.044,0.045,0.001936,0.002025
11:10:54,30-Sep-21,0.044,0.045,0.001936,0.002025
11:10:54,30-Sep-21,0.044,0.045,0.001936,0.002025
11:10:54,30-Sep-21,0.044,0.045,0.001936,0.002025
11:10:54,30-Sep-21,0.044,0.045,0.001936,0.002025
11:10:54,30-Sep-21,0.044,0.045,0.001936,0.002025
11:10:54,30-Sep-21,0.044,0.045,0.001936,0.002025
11:10:54,30-Sep-21,0.044,0.045,0.001936,0.002025
11:10:54,30-Sep-21,0.044,0.044,0.001936,0.001936
11:10:54,30-Sep-21,0.044,0.044,0.001936,0.001936
11:10:54,30-Sep-21,0.044,0.044,0.001936,0.001936
11:10:54,30-Sep-21,0.044,0.044,0.001936,0.001936
11:10:54,30-Sep-21,0.044,0.044,0.001936,0.001936
11:10:54,30-Sep-21,0.044,0.044,0.001936,0.001936
11:10:54,30-Sep-21,0.044,0.043,0.001936,0.001849
11:10:54,30-Sep-21,0.044,0.043,0.001936,0.001849
11:10:54,30-Sep-21,0.044,0.043,0.001936,0.001849
11:10:54,30-Sep-21,0.044,0.043,0.001936,0.001849
11:10:54,30-Sep-21,0.044,0.043,0.001936,0.001849
11:10:54,30-Sep-21,0.039,0.043,0.001521,0.001849
11:10:54,30-Sep-21,0.039,0.043,0.001521,0.001849
11:10:54,30-Sep-21,0.039,0.042,0.001521,0.001764
11:10:54,30-Sep-21,0.044,0.042,0.001936,0.001764
11:10:54,30-Sep-21,0.044,0.042,0.001936,0.001764
11:10:54,30-Sep-21,0.044,0.042,0.001936,0.001764
11:10:54,30-Sep-21,0.044,0.042,0.001936,0.001764
11:10:54,30-Sep-21,0.039,0.042,0.001521,0.001764
11:10:54,30-Sep-21,0.039,0.042,0.001521,0.001764
11:10:54,30-Sep-21,0.039,0.042,0.001521,0.001764
11:10:54,30-Sep-21,0.039,0.042,0.001521,0.001764
11:10:54,30-Sep-21,0.044,0.042,0.001936,0.001764
11:10:54,30-Sep-21,0.044,0.042,0.001936,0.001764
11:10:54,30-Sep-21,0.039,0.042,0.001521,0.001764
11:10:54,30-Sep-21,0.039,0.042,0.001521,0.001764
11:10:54,30-Sep-21,0.039,0.042,0.001521,0.001764
11:10:54,30-Sep-21,0.039,0.042,0.001521,0.001764
11:10:54,30-Sep-21,0.039,0.042,0.001521,0.001764
11:10:54,30-Sep-21,0.044,0.042,0.001936,0.001764
11:10:54,30-Sep-21,0.044,0.042,0.001936,0.001764
11:10:54,30-Sep-21,0.044,0.043,0.001936,0.001849
11:10:54,30-Sep-21,0.044,0.043,0.001936,0.001849
11:10:54,30-Sep-21,0.044,0.043,0.001936,0.001849
11:10:54,30-Sep-21,0.044,0.043,0.001936,0.001849
11:10:54,30-Sep-21,0.044,0.043,0.001936,0.001849
11:10:54,30-Sep-21,0.044,0.043,0.001936,0.001849
11:10:54,30-Sep-21,0.044,0.043,0.001936,0.001849
11:10:54,30-Sep-21,0.044,0.043,0.001936,0.001849
11:10:54,30-Sep-21,0.044,0.043,0.001936,0.001849
11:10:54,30-Sep-21,0.044,0.043,0.001936,0.001849
11:10:54,30-Sep-21,0.044,0.043,0.001936,0.001849
11:10:54,30-Sep-21,0.044,0.043,0.001936,0.001849
11:10:54,30-Sep-21,0.044,0.043,0.001936,0.001849
11:10:54,30-Sep-21,0.044,0.043,0.001936,0.001849
11:10:54,30-Sep-21,0.044,0.043,0.001936,0.001849
11:10:54,30-Sep-21,0.044,0.043,0.001936,0.001849
11:10:54,30-Sep-21,0.044,0.043,0.001936,0.001849
11:10:54,30-Sep-21,0.044,0.043,0.001936,0.001849
11:10:54,30-Sep-21,0.044,0.043,0.001936,0.001849
11:10:54,30-Sep-21,0.044,0.043,0.001936,0.001849
11:10:54,30-Sep-21,0.044,0.043,0.001936,0.001849
11:10:54,30-Sep-21,0.044,0.043,0.001936,0.001849
11:10:54,30-Sep-21,0.044,0.043,0.001936,0.001849
11:10:54,30-Sep-21,0.044,0.043,0.001936,0.001849
11:10:54,30-Sep-21,0.044,0.043,0.001936,0.001849
11:10:54,30-Sep-21,0.044,0.043,0.001936,0.001849
11:10:54,30-Sep-21,0.044,0.043,0.001936,0.001849
11:10:54,30-Sep-21,0.044,0.043,0.001936,0.001849
11:10:54,30-Sep-21,0.044,0.043,0.001936,0.001849
11:10:54,30-Sep-21,0.044,0.043,0.001936,0.001849
11:10:54,30-Sep-21,0.044,0.043,0.001936,0.001849
11:10:54,30-Sep-21,0.039,0.042,0.001521,0.001764
11:10:54,30-Sep-21,0.039,0.042,0.001521,0.001764
11:10:54,30-Sep-21,0.039,0.042,0.001521,0.001764
11:10:54,30-Sep-21,0.039,0.042,0.001521,0.001764
11:10:54,30-Sep-21,0.039,0.042,0.001521,0.001764
11:10:54,30-Sep-21,0.039,0.042,0.001521,0.001764
11:10:54,30-Sep-21,0.039,0.042,0.001521,0.001764
11:10:54,30-Sep-21,0.044,0.042,0.001936,0.001764
11:10:54,30-Sep-21,0.044,0.041,0.001936,0.001681
11:10:54,30-Sep-21,0.044,0.041,0.001936,0.001681
11:10:54,30-Sep-21,0.044,0.041,0.001936,0.001681
11:10:54,30-Sep-21,0.044,0.041,0.001936,0.001681
11:10:54,30-Sep-21,0.044,0.041,0.001936,0.001681
11:10:54,30-Sep-21,0.044,0.041,0.001936,0.001681
11:10:54,30-Sep-21,0.044,0.041,0.001936,0.001681
11:10:54,30-Sep-21,0.039,0.041,0.001521,0.001681
11:10:54,30-Sep-21,0.039,0.041,0.001521,0.001681
11:10:54,30-Sep-21,0.039,0.041,0.001521,0.001681
11:10:54,30-Sep-21,0.039,0.041,0.001521,0.001681
11:10:54,30-Sep-21,0.039,0.041,0.001521,0.001681
11:10:54,30-Sep-21,0.039,0.041,0.001521,0.001681
11:10:54,30-Sep-21,0.039,0.041,0.001521,0.001681
11:10:54,30-Sep-21,0.039,0.041,0.001521,0.001681
11:10:54,30-Sep-21,0.039,0.041,0.001521,0.001681
11:10:54,30-Sep-21,0.039,0.041,0.001521,0.001681
11:10:54,30-Sep-21,0.039,0.041,0.001521,0.001681
11:10:54,30-Sep-21,0.039,0.041,0.001521,0.001681
11:10:54,30-Sep-21,0.039,0.041,0.001521,0.001681
11:10:54,30-Sep-21,0.039,0.041,0.001521,0.001681
11:10:55,30-Sep-21,0.039,0.041,0.001521,0.001681
11:10:55,30-Sep-21,0.039,0.041,0.001521,0.001681
11:10:55,30-Sep-21,0.039,0.041,0.001521,0.001681
11:10:55,30-Sep-21,0.044,0.041,0.001936,0.001681
11:10:55,30-Sep-21,0.044,0.041,0.001936,0.001681
11:10:55,30-Sep-21,0.044,0.042,0.001936,0.001764
11:10:55,30-Sep-21,0.044,0.042,0.001936,0.001764
11:10:55,30-Sep-21,0.044,0.042,0.001936,0.001764
11:10:55,30-Sep-21,0.044,0.042,0.001936,0.001764
11:10:55,30-Sep-21,0.044,0.042,0.001936,0.001764
11:10:55,30-Sep-21,0.044,0.042,0.001936,0.001764
11:10:55,30-Sep-21,0.044,0.042,0.001936,0.001764
11:10:55,30-Sep-21,0.039,0.042,0.001521,0.001764
11:10:55,30-Sep-21,0.039,0.042,0.001521,0.001764
11:10:55,30-Sep-21,0.039,0.042,0.001521,0.001764
11:10:55,30-Sep-21,0.044,0.042,0.001936,0.001764
11:10:55,30-Sep-21,0.044,0.042,0.001936,0.001764
11:10:55,30-Sep-21,0.044,0.042,0.001936,0.001764
11:10:55,30-Sep-21,0.044,0.042,0.001936,0.001764
11:10:55,30-Sep-21,0.044,0.042,0.001936,0.001764
11:10:55,30-Sep-21,0.044,0.042,0.001936,0.001764
11:10:55,30-Sep-21,0.044,0.042,0.001936,0.001764
11:10:55,30-Sep-21,0.044,0.042,0.001936,0.001764
11:10:55,30-Sep-21,0.044,0.042,0.001936,0.001764
11:10:55,30-Sep-21,0.044,0.042,0.001936,0.001764
11:10:55,30-Sep-21,0.044,0.042,0.001936,0.001764
11:10:55,30-Sep-21,0.044,0.042,0.001936,0.001764
11:10:55,30-Sep-21,0.044,0.042,0.001936,0.001764
11:10:55,30-Sep-21,0.044,0.042,0.001936,0.001764
11:10:55,30-Sep-21,0.044,0.042,0.001936,0.001764
11:10:55,30-Sep-21,0.039,0.042,0.001521,0.001764
11:10:55,30-Sep-21,0.039,0.042,0.001521,0.001764
11:10:55,30-Sep-21,0.039,0.042,0.001521,0.001764
11:10:55,30-Sep-21,0.039,0.041,0.001521,0.001681
11:10:55,30-Sep-21,0.039,0.041,0.001521,0.001681
11:10:55,30-Sep-21,0.039,0.041,0.001521,0.001681
11:10:55,30-Sep-21,0.039,0.041,0.001521,0.001681
11:10:55,30-Sep-21,0.039,0.041,0.001521,0.001681
11:10:55,30-Sep-21,0.039,0.041,0.001521,0.001681
11:10:55,30-Sep-21,0.039,0.041,0.001521,0.001681
11:10:55,30-Sep-21,0.039,0.041,0.001521,0.001681
11:10:55,30-Sep-21,0.039,0.041,0.001521,0.001681
11:10:55,30-Sep-21,0.039,0.041,0.001521,0.001681
11:10:55,30-Sep-21,0.039,0.041,0.001521,0.001681
11:10:55,30-Sep-21,0.039,0.041,0.001521,0.001681
11:10:55,30-Sep-21,0.039,0.041,0.001521,0.001681
11:10:55,30-Sep-21,0.044,0.041,0.001936,0.001681
11:10:55,30-Sep-21,0.044,0.041,0.001936,0.001681
11:10:55,30-Sep-21,0.044,0.041,0.001936,0.001681
11:10:55,30-Sep-21,0.039,0.041,0.001521,0.001681
11:10:55,30-Sep-21,0.039,0.041,0.001521,0.001681
11:10:55,30-Sep-21,0.039,0.041,0.001521,0.001681
11:10:55,30-Sep-21,0.044,0.041,0.001936,0.001681
11:10:55,30-Sep-21,0.044,0.041,0.001936,0.001681
11:10:55,30-Sep-21,0.044,0.041,0.001936,0.001681
11:10:55,30-Sep-21,0.044,0.041,0.001936,0.001681
11:10:55,30-Sep-21,0.044,0.041,0.001936,0.001681
11:10:55,30-Sep-21,0.044,0.041,0.001936,0.001681
11:10:55,30-Sep-21,0.044,0.041,0.001936,0.001681
11:10:55,30-Sep-21,0.044,0.041,0.001936,0.001681
11:10:55,30-Sep-21,0.044,0.041,0.001936,0.001681
11:10:55,30-Sep-21,0.039,0.041,0.001521,0.001681
11:10:55,30-Sep-21,0.039,0.041,0.001521,0.001681
11:10:55,30-Sep-21,0.039,0.041,0.001521,0.001681
11:10:55,30-Sep-21,0.039,0.041,0.001521,0.001681
11:10:55,30-Sep-21,0.044,0.041,0.001936,0.001681
11:10:55,30-Sep-21,0.044,0.041,0.001936,0.001681
11:10:55,30-Sep-21,0.044,0.041,0.001936,0.001681
11:10:55,30-Sep-21,0.044,0.041,0.001936,0.001681
11:10:55,30-Sep-21,0.044,0.041,0.001936,0.001681
11:10:55,30-Sep-21,0.044,0.041,0.001936,0.001681
11:10:55,30-Sep-21,0.044,0.041,0.001936,0.001681
11:10:55,30-Sep-21,0.039,0.041,0.001521,0.001681
11:10:55,30-Sep-21,0.039,0.041,0.001521,0.001681
11:10:55,30-Sep-21,0.039,0.041,0.001521,0.001681
11:10:55,30-Sep-21,0.039,0.041,0.001521,0.001681
11:10:55,30-Sep-21,0.039,0.041,0.001521,0.001681
11:10:55,30-Sep-21,0.039,0.041,0.001521,0.001681
11:10:55,30-Sep-21,0.039,0.041,0.001521,0.001681
11:10:55,30-Sep-21,0.039,0.041,0.001521,0.001681
11:10:55,30-Sep-21,0.039,0.041,0.001521,0.001681
11:10:55,30-Sep-21,0.039,0.041,0.001521,0.001681
11:10:55,30-Sep-21,0.039,0.041,0.001521,0.001681
11:10:55,30-Sep-21,0.039,0.041,0.001521,0.001681
11:10:55,30-Sep-21,0.039,0.041,0.001521,0.001681
11:10:55,30-Sep-21,0.039,0.041,0.001521,0.001681
11:10:55,30-Sep-21,0.039,0.041,0.001521,0.001681
11:10:55,30-Sep-21,0.039,0.041,0.001521,0.001681
11:10:55,30-Sep-21,0.039,0.041,0.001521,0.001681
11:10:55,30-Sep-21,0.044,0.041,0.001936,0.001681
11:10:55,30-Sep-21,0.044,0.041,0.001936,0.001681
11:10:55,30-Sep-21,0.044,0.041,0.001936,0.001681
11:10:55,30-Sep-21,0.044,0.041,0.001936,0.001681
11:10:55,30-Sep-21,0.044,0.041,0.001936,0.001681
11:10:55,30-Sep-21,0.044,0.041,0.001936,0.001681
11:10:55,30-Sep-21,0.044,0.041,0.001936,0.001681
11:10:55,30-Sep-21,0.044,0.041,0.001936,0.001681
11:10:55,30-Sep-21,0.044,0.041,0.001936,0.001681
11:10:55,30-Sep-21,0.044,0.041,0.001936,0.001681
11:10:55,30-Sep-21,0.044,0.041,0.001936,0.001681
11:10:55,30-Sep-21,0.044,0.041,0.001936,0.001681
11:10:55,30-Sep-21,0.039,0.041,0.001521,0.001681
11:10:55,30-Sep-21,0.039,0.041,0.001521,0.001681
11:10:55,30-Sep-21,0.039,0.041,0.001521,0.001681
11:10:55,30-Sep-21,0.039,0.041,0.001521,0.001681
11:10:55,30-Sep-21,0.039,0.04,0.001521,0.0016
11:10:55,30-Sep-21,0.039,0.04,0.001521,0.0016
11:10:55,30-Sep-21,0.039,0.04,0.001521,0.0016
11:10:55,30-Sep-21,0.039,0.04,0.001521,0.0016
11:10:55,30-Sep-21,0.039,0.04,0.001521,0.0016
11:10:55,30-Sep-21,0.039,0.04,0.001521,0.0016
11:10:55,30-Sep-21,0.039,0.04,0.001521,0.0016
11:10:55,30-Sep-21,0.039,0.04,0.001521,0.0016
11:10:55,30-Sep-21,0.039,0.04,0.001521,0.0016
11:10:55,30-Sep-21,0.039,0.04,0.001521,0.0016
11:10:55,30-Sep-21,0.039,0.04,0.001521,0.0016
11:10:55,30-Sep-21,0.039,0.04,0.001521,0.0016
11:10:55,30-Sep-21,0.039,0.04,0.001521,0.0016
11:10:55,30-Sep-21,0.039,0.04,0.001521,0.0016
11:10:55,30-Sep-21,0.039,0.04,0.001521,0.0016
11:10:55,30-Sep-21,0.039,0.04,0.001521,0.0016
11:10:55,30-Sep-21,0.044,0.04,0.001936,0.0016
11:10:55,30-Sep-21,0.044,0.04,0.001936,0.0016
11:10:55,30-Sep-21,0.044,0.04,0.001936,0.0016
11:10:55,30-Sep-21,0.039,0.04,0.001521,0.0016
11:10:55,30-Sep-21,0.039,0.04,0.001521,0.0016
11:10:55,30-Sep-21,0.039,0.04,0.001521,0.0016
11:10:55,30-Sep-21,0.039,0.04,0.001521,0.0016
11:10:55,30-Sep-21,0.039,0.04,0.001521,0.0016
11:10:55,30-Sep-21,0.039,0.04,0.001521,0.0016
11:10:55,30-Sep-21,0.039,0.04,0.001521,0.0016
11:10:55,30-Sep-21,0.039,0.04,0.001521,0.0016
11:10:55,30-Sep-21,0.039,0.04,0.001521,0.0016
11:10:55,30-Sep-21,0.039,0.04,0.001521,0.0016
11:10:55,30-Sep-21,0.039,0.04,0.001521,0.0016
11:10:55,30-Sep-21,0.039,0.04,0.001521,0.0016
11:10:55,30-Sep-21,0.039,0.04,0.001521,0.0016
11:10:55,30-Sep-21,0.044,0.04,0.001936,0.0016
11:10:55,30-Sep-21,0.044,0.04,0.001936,0.0016
11:10:55,30-Sep-21,0.039,0.04,0.001521,0.0016
11:10:55,30-Sep-21,0.039,0.04,0.001521,0.0016
11:10:55,30-Sep-21,0.039,0.04,0.001521,0.0016
11:10:55,30-Sep-21,0.039,0.04,0.001521,0.0016
11:10:55,30-Sep-21,0.039,0.04,0.001521,0.0016
11:10:55,30-Sep-21,0.044,0.04,0.001936,0.0016
11:10:55,30-Sep-21,0.044,0.041,0.001936,0.001681
11:10:55,30-Sep-21,0.044,0.041,0.001936,0.001681
11:10:55,30-Sep-21,0.039,0.041,0.001521,0.001681
11:10:55,30-Sep-21,0.039,0.041,0.001521,0.001681
11:10:55,30-Sep-21,0.039,0.041,0.001521,0.001681
11:10:55,30-Sep-21,0.039,0.041,0.001521,0.001681
11:10:55,30-Sep-21,0.039,0.041,0.001521,0.001681
11:10:55,30-Sep-21,0.039,0.04,0.001521,0.0016
11:10:55,30-Sep-21,0.044,0.04,0.001936,0.0016
11:10:55,30-Sep-21,0.044,0.04,0.001936,0.0016
11:10:55,30-Sep-21,0.044,0.04,0.001936,0.0016
11:10:55,30-Sep-21,0.044,0.04,0.001936,0.0016
11:10:55,30-Sep-21,0.044,0.04,0.001936,0.0016
11:10:55,30-Sep-21,0.039,0.04,0.001521,0.0016
11:10:55,30-Sep-21,0.039,0.04,0.001521,0.0016
11:10:55,30-Sep-21,0.039,0.04,0.001521,0.0016
11:10:55,30-Sep-21,0.039,0.04,0.001521,0.0016
11:10:55,30-Sep-21,0.039,0.04,0.001521,0.0016
11:10:55,30-Sep-21,0.039,0.04,0.001521,0.0016
11:10:55,30-Sep-21,0.039,0.04,0.001521,0.0016
11:10:55,30-Sep-21,0.039,0.04,0.001521,0.0016
11:10:55,30-Sep-21,0.039,0.04,0.001521,0.0016
11:10:55,30-Sep-21,0.039,0.04,0.001521,0.0016
11:10:55,30-Sep-21,0.039,0.04,0.001521,0.0016
11:10:55,30-Sep-21,0.039,0.04,0.001521,0.0016
11:10:55,30-Sep-21,0.039,0.039,0.001521,0.001521
11:10:55,30-Sep-21,0.039,0.039,0.001521,0.001521
11:10:55,30-Sep-21,0.039,0.039,0.001521,0.001521
11:10:55,30-Sep-21,0.039,0.039,0.001521,0.001521
11:10:55,30-Sep-21,0.039,0.039,0.001521,0.001521
11:10:55,30-Sep-21,0.039,0.039,0.001521,0.001521
11:10:55,30-Sep-21,0.039,0.039,0.001521,0.001521
11:10:55,30-Sep-21,0.039,0.039,0.001521,0.001521
11:10:55,30-Sep-21,0.039,0.039,0.001521,0.001521
11:10:56,30-Sep-21,0.039,0.039,0.001521,0.001521
11:10:56,30-Sep-21,0.039,0.039,0.001521,0.001521
11:10:56,30-Sep-21,0.039,0.039,0.001521,0.001521
11:10:56,30-Sep-21,0.039,0.039,0.001521,0.001521
11:10:56,30-Sep-21,0.039,0.039,0.001521,0.001521
11:10:56,30-Sep-21,0.039,0.039,0.001521,0.001521
11:10:56,30-Sep-21,0.039,0.039,0.001521,0.001521
11:10:56,30-Sep-21,0.039,0.039,0.001521,0.001521
11:10:56,30-Sep-21,0.039,0.039,0.001521,0.001521
11:10:56,30-Sep-21,0.039,0.039,0.001521,0.001521
11:10:56,30-Sep-21,0.039,0.039,0.001521,0.001521
11:10:56,30-Sep-21,0.039,0.039,0.001521,0.001521
11:10:56,30-Sep-21,0.039,0.039,0.001521,0.001521
11:10:56,30-Sep-21,0.039,0.039,0.001521,0.001521
11:10:56,30-Sep-21,0.039,0.039,0.001521,0.001521
11:10:56,30-Sep-21,0.039,0.039,0.001521,0.001521
11:10:56,30-Sep-21,0.039,0.039,0.001521,0.001521
11:10:56,30-Sep-21,0.039,0.039,0.001521,0.001521
11:10:56,30-Sep-21,0.039,0.039,0.001521,0.001521
11:10:56,30-Sep-21,0.039,0.039,0.001521,0.001521
11:10:56,30-Sep-21,0.039,0.039,0.001521,0.001521
11:10:56,30-Sep-21,0.039,0.039,0.001521,0.001521
11:10:56,30-Sep-21,0.039,0.039,0.001521,0.001521
11:10:56,30-Sep-21,0.039,0.039,0.001521,0.001521
11:10:56,30-Sep-21,0.039,0.039,0.001521,0.001521
11:10:56,30-Sep-21,0.039,0.039,0.001521,0.001521
11:10:56,30-Sep-21,0.039,0.039,0.001521,0.001521
11:10:56,30-Sep-21,0.039,0.039,0.001521,0.001521
11:10:56,30-Sep-21,0.039,0.039,0.001521,0.001521
11:10:56,30-Sep-21,0.039,0.039,0.001521,0.001521
11:10:56,30-Sep-21,0.039,0.039,0.001521,0.001521
11:10:56,30-Sep-21,0.039,0.039,0.001521,0.001521
11:10:56,30-Sep-21,0.039,0.039,0.001521,0.001521
11:10:56,30-Sep-21,0.039,0.039,0.001521,0.001521
11:10:56,30-Sep-21,0.039,0.04,0.001521,0.0016
11:10:56,30-Sep-21,0.039,0.04,0.001521,0.0016
11:10:56,30-Sep-21,0.039,0.04,0.001521,0.0016
11:10:56,30-Sep-21,0.039,0.04,0.001521,0.0016
11:10:56,30-Sep-21,0.039,0.04,0.001521,0.0016
11:10:56,30-Sep-21,0.039,0.04,0.001521,0.0016
11:10:56,30-Sep-21,0.039,0.04,0.001521,0.0016
11:10:56,30-Sep-21,0.039,0.04,0.001521,0.0016
11:10:56,30-Sep-21,0.039,0.04,0.001521,0.0016
11:10:56,30-Sep-21,0.044,0.04,0.001936,0.0016
11:10:56,30-Sep-21,0.044,0.04,0.001936,0.0016
11:10:56,30-Sep-21,0.044,0.04,0.001936,0.0016
11:10:56,30-Sep-21,0.044,0.04,0.001936,0.0016
11:10:56,30-Sep-21,0.039,0.04,0.001521,0.0016
11:10:56,30-Sep-21,0.039,0.04,0.001521,0.0016
11:10:56,30-Sep-21,0.039,0.04,0.001521,0.0016
11:10:56,30-Sep-21,0.039,0.04,0.001521,0.0016
11:10:56,30-Sep-21,0.039,0.04,0.001521,0.0016
11:10:56,30-Sep-21,0.039,0.04,0.001521,0.0016
11:10:56,30-Sep-21,0.039,0.04,0.001521,0.0016
11:10:56,30-Sep-21,0.039,0.04,0.001521,0.0016
11:10:56,30-Sep-21,0.039,0.04,0.001521,0.0016
11:10:56,30-Sep-21,0.039,0.04,0.001521,0.0016
11:10:56,30-Sep-21,0.039,0.039,0.001521,0.001521
11:10:56,30-Sep-21,0.039,0.039,0.001521,0.001521
11:10:56,30-Sep-21,0.039,0.039,0.001521,0.001521
11:10:56,30-Sep-21,0.039,0.039,0.001521,0.001521
11:10:56,30-Sep-21,0.039,0.039,0.001521,0.001521
11:10:56,30-Sep-21,0.039,0.039,0.001521,0.001521
11:10:56,30-Sep-21,0.039,0.039,0.001521,0.001521
11:10:56,30-Sep-21,0.039,0.039,0.001521,0.001521
11:10:56,30-Sep-21,0.039,0.039,0.001521,0.001521
11:10:56,30-Sep-21,0.039,0.039,0.001521,0.001521
11:10:56,30-Sep-21,0.039,0.039,0.001521,0.001521
11:10:56,30-Sep-21,0.039,0.039,0.001521,0.001521
11:10:56,30-Sep-21,0.039,0.039,0.001521,0.001521
11:10:56,30-Sep-21,0.039,0.039,0.001521,0.001521
11:10:56,30-Sep-21,0.039,0.039,0.001521,0.001521
11:10:56,30-Sep-21,0.039,0.039,0.001521,0.001521
11:10:56,30-Sep-21,0.039,0.039,0.001521,0.001521
11:10:56,30-Sep-21,0.039,0.039,0.001521,0.001521
11:10:56,30-Sep-21,0.039,0.039,0.001521,0.001521
11:10:56,30-Sep-21,0.039,0.039,0.001521,0.001521
11:10:56,30-Sep-21,0.039,0.039,0.001521,0.001521
11:10:56,30-Sep-21,0.039,0.039,0.001521,0.001521
11:10:56,30-Sep-21,0.039,0.039,0.001521,0.001521
11:10:56,30-Sep-21,0.039,0.039,0.001521,0.001521
11:10:56,30-Sep-21,0.039,0.039,0.001521,0.001521
11:10:56,30-Sep-21,0.039,0.039,0.001521,0.001521
11:10:56,30-Sep-21,0.039,0.039,0.001521,0.001521
11:10:56,30-Sep-21,0.039,0.039,0.001521,0.001521
11:10:56,30-Sep-21,0.039,0.039,0.001521,0.001521
11:10:56,30-Sep-21,0.039,0.039,0.001521,0.001521
11:10:56,30-Sep-21,0.039,0.039,0.001521,0.001521
11:10:56,30-Sep-21,0.039,0.039,0.001521,0.001521
11:10:56,30-Sep-21,0.039,0.039,0.001521,0.001521
11:10:56,30-Sep-21,0.039,0.039,0.001521,0.001521
11:10:56,30-Sep-21,0.039,0.039,0.001521,0.001521
11:10:56,30-Sep-21,0.039,0.039,0.001521,0.001521
11:10:56,30-Sep-21,0.039,0.039,0.001521,0.001521
11:10:56,30-Sep-21,0.039,0.039,0.001521,0.001521
11:10:56,30-Sep-21,0.039,0.039,0.001521,0.001521
11:10:56,30-Sep-21,0.039,0.039,0.001521,0.001521
11:10:56,30-Sep-21,0.039,0.039,0.001521,0.001521
11:10:56,30-Sep-21,0.039,0.039,0.001521,0.001521
11:10:56,30-Sep-21,0.039,0.039,0.001521,0.001521
11:10:56,30-Sep-21,0.039,0.039,0.001521,0.001521
11:10:56,30-Sep-21,0.039,0.039,0.001521,0.001521
11:10:56,30-Sep-21,0.039,0.039,0.001521,0.001521
11:10:56,30-Sep-21,0.039,0.039,0.001521,0.001521
11:10:56,30-Sep-21,0.039,0.039,0.001521,0.001521
11:10:56,30-Sep-21,0.039,0.039,0.001521,0.001521
11:10:56,30-Sep-21,0.039,0.039,0.001521,0.001521
11:10:56,30-Sep-21,0.039,0.039,0.001521,0.001521
11:10:56,30-Sep-21,0.039,0.039,0.001521,0.001521
11:10:56,30-Sep-21,0.039,0.039,0.001521,0.001521
11:10:56,30-Sep-21,0.039,0.039,0.001521,0.001521
11:10:56,30-Sep-21,0.039,0.039,0.001521,0.001521
11:10:56,30-Sep-21,0.039,0.039,0.001521,0.001521
11:10:56,30-Sep-21,0.039,0.039,0.001521,0.001521
11:10:56,30-Sep-21,0.039,0.039,0.001521,0.001521
11:10:56,30-Sep-21,0.039,0.039,0.001521,0.001521
11:10:56,30-Sep-21,0.039,0.039,0.001521,0.001521
11:10:56,30-Sep-21,0.039,0.039,0.001521,0.001521
11:10:56,30-Sep-21,0.039,0.039,0.001521,0.001521
11:10:56,30-Sep-21,0.039,0.039,0.001521,0.001521
11:10:56,30-Sep-21,0.039,0.039,0.001521,0.001521
11:10:56,30-Sep-21,0.039,0.039,0.001521,0.001521
11:10:56,30-Sep-21,0.039,0.039,0.001521,0.001521
11:10:56,30-Sep-21,0.039,0.039,0.001521,0.001521
11:10:56,30-Sep-21,0.039,0.039,0.001521,0.001521
11:10:56,30-Sep-21,0.039,0.039,0.001521,0.001521
11:10:56,30-Sep-21,0.039,0.039,0.001521,0.001521
11:10:56,30-Sep-21,0.039,0.039,0.001521,0.001521
11:10:56,30-Sep-21,0.039,0.039,0.001521,0.001521
11:10:56,30-Sep-21,0.039,0.039,0.001521,0.001521
11:10:56,30-Sep-21,0.039,0.039,0.001521,0.001521
11:10:56,30-Sep-21,0.039,0.039,0.001521,0.001521
11:10:56,30-Sep-21,0.039,0.039,0.001521,0.001521
11:10:56,30-Sep-21,0.039,0.039,0.001521,0.001521
11:10:56,30-Sep-21,0.039,0.039,0.001521,0.001521
11:10:56,30-Sep-21,0.039,0.039,0.001521,0.001521
11:10:56,30-Sep-21,0.039,0.039,0.001521,0.001521
11:10:56,30-Sep-21,0.039,0.039,0.001521,0.001521
11:10:56,30-Sep-21,0.039,0.039,0.001521,0.001521
11:10:56,30-Sep-21,0.039,0.039,0.001521,0.001521
11:10:56,30-Sep-21,0.039,0.039,0.001521,0.001521
11:10:56,30-Sep-21,0.039,0.039,0.001521,0.001521
11:10:56,30-Sep-21,0.039,0.039,0.001521,0.001521
11:10:56,30-Sep-21,0.039,0.039,0.001521,0.001521
11:10:56,30-Sep-21,0.039,0.038,0.001521,0.001444
11:10:56,30-Sep-21,0.039,0.038,0.001521,0.001444
11:10:56,30-Sep-21,0.039,0.038,0.001521,0.001444
11:10:56,30-Sep-21,0.034,0.038,0.001156,0.001444
11:10:56,30-Sep-21,0.034,0.038,0.001156,0.001444
11:10:56,30-Sep-21,0.034,0.038,0.001156,0.001444
11:10:56,30-Sep-21,0.039,0.038,0.001521,0.001444
11:10:56,30-Sep-21,0.039,0.038,0.001521,0.001444
11:10:56,30-Sep-21,0.039,0.038,0.001521,0.001444
11:10:56,30-Sep-21,0.039,0.039,0.001521,0.001521
11:10:56,30-Sep-21,0.039,0.039,0.001521,0.001521
11:10:56,30-Sep-21,0.039,0.039,0.001521,0.001521
11:10:56,30-Sep-21,0.039,0.039,0.001521,0.001521
11:10:56,30-Sep-21,0.039,0.039,0.001521,0.001521
11:10:56,30-Sep-21,0.039,0.039,0.001521,0.001521
11:10:56,30-Sep-21,0.039,0.039,0.001521,0.001521
11:10:56,30-Sep-21,0.039,0.039,0.001521,0.001521
11:10:56,30-Sep-21,0.039,0.039,0.001521,0.001521
11:10:56,30-Sep-21,0.039,0.039,0.001521,0.001521
11:10:56,30-Sep-21,0.039,0.039,0.001521,0.001521
11:10:56,30-Sep-21,0.039,0.039,0.001521,0.001521
11:10:56,30-Sep-21,0.039,0.039,0.001521,0.001521
11:10:56,30-Sep-21,0.039,0.039,0.001521,0.001521
11:10:56,30-Sep-21,0.039,0.039,0.001521,0.001521
11:10:56,30-Sep-21,0.039,0.039,0.001521,0.001521
11:10:56,30-Sep-21,0.039,0.039,0.001521,0.001521
11:10:56,30-Sep-21,0.039,0.039,0.001521,0.001521
11:10:56,30-Sep-21,0.039,0.039,0.001521,0.001521
11:10:56,30-Sep-21,0.039,0.039,0.001521,0.001521
11:10:56,30-Sep-21,0.039,0.039,0.001521,0.001521
11:10:56,30-Sep-21,0.039,0.039,0.001521,0.001521
11:10:56,30-Sep-21,0.039,0.039,0.001521,0.001521
11:10:56,30-Sep-21,0.039,0.039,0.001521,0.001521
11:10:56,30-Sep-21,0.039,0.039,0.001521,0.001521
11:10:56,30-Sep-21,0.039,0.039,0.001521,0.001521
11:10:56,30-Sep-21,0.039,0.039,0.001521,0.001521
11:10:56,30-Sep-21,0.039,0.039,0.001521,0.001521
11:10:56,30-Sep-21,0.039,0.039,0.001521,0.001521
11:10:56,30-Sep-21,0.039,0.039,0.001521,0.001521
11:10:56,30-Sep-21,0.039,0.039,0.001521,0.001521
11:10:56,30-Sep-21,0.039,0.039,0.001521,0.001521
11:10:56,30-Sep-21,0.039,0.039,0.001521,0.001521
11:10:56,30-Sep-21,0.039,0.039,0.001521,0.001521
11:10:56,30-Sep-21,0.039,0.039,0.001521,0.001521
11:10:56,30-Sep-21,0.039,0.039,0.001521,0.001521
11:10:56,30-Sep-21,0.039,0.039,0.001521,0.001521
11:10:56,30-Sep-21,0.039,0.039,0.001521,0.001521
11:10:56,30-Sep-21,0.039,0.039,0.001521,0.001521
11:10:56,30-Sep-21,0.039,0.039,0.001521,0.001521
11:10:56,30-Sep-21,0.039,0.039,0.001521,0.001521
11:10:56,30-Sep-21,0.039,0.039,0.001521,0.001521
11:10:56,30-Sep-21,0.039,0.039,0.001521,0.001521
11:10:56,30-Sep-21,0.039,0.039,0.001521,0.001521
11:10:56,30-Sep-21,0.039,0.039,0.001521,0.001521
11:10:56,30-Sep-21,0.039,0.039,0.001521,0.001521
11:10:56,30-Sep-21,0.039,0.039,0.001521,0.001521
11:10:56,30-Sep-21,0.039,0.039,0.001521,0.001521
11:10:56,30-Sep-21,0.039,0.039,0.001521,0.001521
11:10:56,30-Sep-21,0.039,0.039,0.001521,0.001521
11:10:56,30-Sep-21,0.039,0.039,0.001521,0.001521
11:10:56,30-Sep-21,0.039,0.039,0.001521,0.001521
11:10:56,30-Sep-21,0.039,0.039,0.001521,0.001521
11:10:56,30-Sep-21,0.039,0.039,0.001521,0.001521
11:10:56,30-Sep-21,0.039,0.039,0.001521,0.001521
11:10:57,30-Sep-21,0.039,0.039,0.001521,0.001521
11:10:57,30-Sep-21,0.039,0.039,0.001521,0.001521
11:10:57,30-Sep-21,0.039,0.039,0.001521,0.001521
11:10:57,30-Sep-21,0.039,0.039,0.001521,0.001521
11:10:57,30-Sep-21,0.039,0.039,0.001521,0.001521
11:10:57,30-Sep-21,0.039,0.039,0.001521,0.001521
11:10:57,30-Sep-21,0.039,0.039,0.001521,0.001521
11:10:57,30-Sep-21,0.039,0.039,0.001521,0.001521
11:10:57,30-Sep-21,0.039,0.039,0.001521,0.001521
11:10:57,30-Sep-21,0.039,0.039,0.001521,0.001521
11:10:57,30-Sep-21,0.039,0.039,0.001521,0.001521
11:10:57,30-Sep-21,0.039,0.039,0.001521,0.001521
11:10:57,30-Sep-21,0.039,0.039,0.001521,0.001521
11:10:57,30-Sep-21,0.039,0.039,0.001521,0.001521
11:10:57,30-Sep-21,0.039,0.039,0.001521,0.001521
11:10:57,30-Sep-21,0.039,0.039,0.001521,0.001521
11:10:57,30-Sep-21,0.039,0.039,0.001521,0.001521
11:10:57,30-Sep-21,0.039,0.039,0.001521,0.001521
11:10:57,30-Sep-21,0.039,0.039,0.001521,0.001521
11:10:57,30-Sep-21,0.039,0.039,0.001521,0.001521
11:10:57,30-Sep-21,0.039,0.039,0.001521,0.001521
11:10:57,30-Sep-21,0.039,0.039,0.001521,0.001521
11:10:57,30-Sep-21,0.039,0.039,0.001521,0.001521
11:10:57,30-Sep-21,0.039,0.039,0.001521,0.001521
11:10:57,30-Sep-21,0.039,0.039,0.001521,0.001521
11:10:57,30-Sep-21,0.039,0.039,0.001521,0.001521
11:10:57,30-Sep-21,0.039,0.039,0.001521,0.001521
11:10:57,30-Sep-21,0.039,0.039,0.001521,0.001521
11:10:57,30-Sep-21,0.039,0.039,0.001521,0.001521
11:10:57,30-Sep-21,0.039,0.039,0.001521,0.001521
11:10:57,30-Sep-21,0.039,0.039,0.001521,0.001521
11:10:57,30-Sep-21,0.039,0.039,0.001521,0.001521
11:10:57,30-Sep-21,0.039,0.039,0.001521,0.001521
11:10:57,30-Sep-21,0.039,0.039,0.001521,0.001521
11:10:57,30-Sep-21,0.039,0.039,0.001521,0.001521
11:10:57,30-Sep-21,0.044,0.039,0.001936,0.001521
11:10:57,30-Sep-21,0.044,0.039,0.001936,0.001521
11:10:57,30-Sep-21,0.044,0.04,0.001936,0.0016
11:10:57,30-Sep-21,0.039,0.04,0.001521,0.0016
11:10:57,30-Sep-21,0.039,0.04,0.001521,0.0016
11:10:57,30-Sep-21,0.039,0.04,0.001521,0.0016
11:10:57,30-Sep-21,0.039,0.04,0.001521,0.0016
11:10:57,30-Sep-21,0.039,0.04,0.001521,0.0016
11:10:57,30-Sep-21,0.039,0.04,0.001521,0.0016
11:10:57,30-Sep-21,0.039,0.04,0.001521,0.0016
11:10:57,30-Sep-21,0.039,0.04,0.001521,0.0016
11:10:57,30-Sep-21,0.039,0.04,0.001521,0.0016
11:10:57,30-Sep-21,0.039,0.04,0.001521,0.0016
11:10:57,30-Sep-21,0.039,0.04,0.001521,0.0016
11:10:57,30-Sep-21,0.039,0.041,0.001521,0.001681
11:10:57,30-Sep-21,0.039,0.041,0.001521,0.001681
11:10:57,30-Sep-21,0.039,0.041,0.001521,0.001681
11:10:57,30-Sep-21,0.039,0.041,0.001521,0.001681
11:10:57,30-Sep-21,0.039,0.041,0.001521,0.001681
11:10:57,30-Sep-21,0.039,0.041,0.001521,0.001681
11:10:57,30-Sep-21,0.039,0.041,0.001521,0.001681
11:10:57,30-Sep-21,0.039,0.041,0.001521,0.001681
11:10:57,30-Sep-21,0.039,0.041,0.001521,0.001681
11:10:57,30-Sep-21,0.039,0.042,0.001521,0.001764
11:10:57,30-Sep-21,0.044,0.042,0.001936,0.001764
11:10:57,30-Sep-21,0.044,0.042,0.001936,0.001764
11:10:57,30-Sep-21,0.044,0.042,0.001936,0.001764
11:10:57,30-Sep-21,0.044,0.042,0.001936,0.001764
11:10:57,30-Sep-21,0.044,0.042,0.001936,0.001764
11:10:57,30-Sep-21,0.044,0.042,0.001936,0.001764
11:10:57,30-Sep-21,0.044,0.042,0.001936,0.001764
11:10:57,30-Sep-21,0.044,0.042,0.001936,0.001764
11:10:57,30-Sep-21,0.044,0.042,0.001936,0.001764
11:10:57,30-Sep-21,0.044,0.042,0.001936,0.001764
11:10:57,30-Sep-21,0.044,0.042,0.001936,0.001764
11:10:57,30-Sep-21,0.044,0.042,0.001936,0.001764
11:10:57,30-Sep-21,0.044,0.042,0.001936,0.001764
11:10:57,30-Sep-21,0.044,0.042,0.001936,0.001764
11:10:57,30-Sep-21,0.044,0.042,0.001936,0.001764
11:10:57,30-Sep-21,0.044,0.042,0.001936,0.001764
11:10:57,30-Sep-21,0.044,0.042,0.001936,0.001764
11:10:57,30-Sep-21,0.044,0.042,0.001936,0.001764
11:10:57,30-Sep-21,0.044,0.042,0.001936,0.001764
11:10:57,30-Sep-21,0.044,0.042,0.001936,0.001764
11:10:57,30-Sep-21,0.044,0.042,0.001936,0.001764
11:10:57,30-Sep-21,0.039,0.042,0.001521,0.001764
11:10:57,30-Sep-21,0.039,0.042,0.001521,0.001764
11:10:57,30-Sep-21,0.039,0.041,0.001521,0.001681
11:10:57,30-Sep-21,0.039,0.041,0.001521,0.001681
11:10:57,30-Sep-21,0.039,0.041,0.001521,0.001681
11:10:57,30-Sep-21,0.039,0.041,0.001521,0.001681
11:10:57,30-Sep-21,0.039,0.041,0.001521,0.001681
11:10:57,30-Sep-21,0.039,0.041,0.001521,0.001681
11:10:57,30-Sep-21,0.039,0.041,0.001521,0.001681
11:10:57,30-Sep-21,0.039,0.041,0.001521,0.001681
11:10:57,30-Sep-21,0.039,0.041,0.001521,0.001681
11:10:57,30-Sep-21,0.039,0.041,0.001521,0.001681
11:10:57,30-Sep-21,0.039,0.041,0.001521,0.001681
11:10:57,30-Sep-21,0.039,0.041,0.001521,0.001681
11:10:57,30-Sep-21,0.039,0.041,0.001521,0.001681
11:10:57,30-Sep-21,0.039,0.041,0.001521,0.001681
11:10:57,30-Sep-21,0.044,0.041,0.001936,0.001681
11:10:57,30-Sep-21,0.044,0.041,0.001936,0.001681
11:10:57,30-Sep-21,0.044,0.041,0.001936,0.001681
11:10:57,30-Sep-21,0.044,0.041,0.001936,0.001681
11:10:57,30-Sep-21,0.044,0.041,0.001936,0.001681
11:10:57,30-Sep-21,0.044,0.041,0.001936,0.001681
11:10:57,30-Sep-21,0.039,0.041,0.001521,0.001681
11:10:57,30-Sep-21,0.039,0.041,0.001521,0.001681
11:10:57,30-Sep-21,0.039,0.041,0.001521,0.001681
11:10:57,30-Sep-21,0.039,0.041,0.001521,0.001681
11:10:57,30-Sep-21,0.039,0.041,0.001521,0.001681
11:10:57,30-Sep-21,0.039,0.041,0.001521,0.001681
11:10:57,30-Sep-21,0.039,0.041,0.001521,0.001681
11:10:57,30-Sep-21,0.039,0.041,0.001521,0.001681
11:10:57,30-Sep-21,0.039,0.041,0.001521,0.001681
11:10:57,30-Sep-21,0.039,0.041,0.001521,0.001681
11:10:57,30-Sep-21,0.039,0.041,0.001521,0.001681
11:10:57,30-Sep-21,0.039,0.041,0.001521,0.001681
11:10:57,30-Sep-21,0.039,0.041,0.001521,0.001681
11:10:57,30-Sep-21,0.039,0.041,0.001521,0.001681
11:10:57,30-Sep-21,0.039,0.041,0.001521,0.001681
11:10:57,30-Sep-21,0.044,0.041,0.001936,0.001681
11:10:57,30-Sep-21,0.044,0.041,0.001936,0.001681
11:10:57,30-Sep-21,0.044,0.041,0.001936,0.001681
11:10:57,30-Sep-21,0.044,0.042,0.001936,0.001764
11:10:57,30-Sep-21,0.044,0.042,0.001936,0.001764
11:10:57,30-Sep-21,0.044,0.042,0.001936,0.001764
11:10:57,30-Sep-21,0.044,0.042,0.001936,0.001764
11:10:57,30-Sep-21,0.044,0.042,0.001936,0.001764
11:10:57,30-Sep-21,0.044,0.042,0.001936,0.001764
11:10:57,30-Sep-21,0.044,0.042,0.001936,0.001764
11:10:57,30-Sep-21,0.044,0.042,0.001936,0.001764
11:10:57,30-Sep-21,0.039,0.041,0.001521,0.001681
11:10:57,30-Sep-21,0.039,0.041,0.001521,0.001681
11:10:57,30-Sep-21,0.044,0.041,0.001936,0.001681
11:10:57,30-Sep-21,0.044,0.041,0.001936,0.001681
11:10:57,30-Sep-21,0.044,0.041,0.001936,0.001681
11:10:57,30-Sep-21,0.044,0.041,0.001936,0.001681
11:10:57,30-Sep-21,0.044,0.041,0.001936,0.001681
11:10:57,30-Sep-21,0.039,0.041,0.001521,0.001681
11:10:57,30-Sep-21,0.039,0.041,0.001521,0.001681
11:10:57,30-Sep-21,0.039,0.041,0.001521,0.001681
11:10:57,30-Sep-21,0.039,0.041,0.001521,0.001681
11:10:57,30-Sep-21,0.039,0.041,0.001521,0.001681
11:10:57,30-Sep-21,0.039,0.04,0.001521,0.0016
11:10:57,30-Sep-21,0.039,0.04,0.001521,0.0016
11:10:57,30-Sep-21,0.039,0.04,0.001521,0.0016
11:10:57,30-Sep-21,0.039,0.04,0.001521,0.0016
11:10:57,30-Sep-21,0.039,0.04,0.001521,0.0016
11:10:57,30-Sep-21,0.039,0.04,0.001521,0.0016
11:10:57,30-Sep-21,0.039,0.04,0.001521,0.0016
11:10:57,30-Sep-21,0.039,0.04,0.001521,0.0016
11:10:57,30-Sep-21,0.039,0.04,0.001521,0.0016
11:10:57,30-Sep-21,0.039,0.04,0.001521,0.0016
11:10:57,30-Sep-21,0.039,0.039,0.001521,0.001521
11:10:57,30-Sep-21,0.039,0.039,0.001521,0.001521
11:10:57,30-Sep-21,0.039,0.039,0.001521,0.001521
11:10:57,30-Sep-21,0.039,0.039,0.001521,0.001521
11:10:57,30-Sep-21,0.039,0.039,0.001521,0.001521
11:10:57,30-Sep-21,0.039,0.039,0.001521,0.001521
11:10:57,30-Sep-21,0.039,0.039,0.001521,0.001521
11:10:58,30-Sep-21,0.039,0.039,0.001521,0.001521
11:10:58,30-Sep-21,0.039,0.039,0.001521,0.001521
11:10:58,30-Sep-21,0.039,0.039,0.001521,0.001521
11:10:58,30-Sep-21,0.039,0.039,0.001521,0.001521
11:10:58,30-Sep-21,0.039,0.039,0.001521,0.001521
11:10:58,30-Sep-21,0.039,0.039,0.001521,0.001521
11:10:58,30-Sep-21,0.039,0.039,0.001521,0.001521
11:10:58,30-Sep-21,0.039,0.039,0.001521,0.001521
11:10:58,30-Sep-21,0.039,0.039,0.001521,0.001521
11:10:58,30-Sep-21,0.039,0.039,0.001521,0.001521
11:10:58,30-Sep-21,0.039,0.039,0.001521,0.001521
11:10:58,30-Sep-21,0.039,0.039,0.001521,0.001521
11:10:58,30-Sep-21,0.039,0.039,0.001521,0.001521
11:10:58,30-Sep-21,0.039,0.039,0.001521,0.001521
11:10:58,30-Sep-21,0.039,0.039,0.001521,0.001521
11:10:58,30-Sep-21,0.039,0.039,0.001521,0.001521
11:10:58,30-Sep-21,0.039,0.039,0.001521,0.001521
11:10:58,30-Sep-21,0.039,0.039,0.001521,0.001521
11:10:58,30-Sep-21,0.039,0.039,0.001521,0.001521
11:10:58,30-Sep-21,0.039,0.039,0.001521,0.001521
11:10:58,30-Sep-21,0.039,0.039,0.001521,0.001521
11:10:58,30-Sep-21,0.039,0.039,0.001521,0.001521
11:10:58,30-Sep-21,0.039,0.039,0.001521,0.001521
11:10:58,30-Sep-21,0.039,0.039,0.001521,0.001521
11:10:58,30-Sep-21,0.044,0.039,0.001936,0.001521
11:10:58,30-Sep-21,0.044,0.039,0.001936,0.001521
11:10:58,30-Sep-21,0.039,0.039,0.001521,0.001521
11:10:58,30-Sep-21,0.039,0.039,0.001521,0.001521
11:10:58,30-Sep-21,0.039,0.039,0.001521,0.001521
11:10:58,30-Sep-21,0.039,0.039,0.001521,0.001521
11:10:58,30-Sep-21,0.039,0.039,0.001521,0.001521
11:10:58,30-Sep-21,0.039,0.039,0.001521,0.001521
11:10:58,30-Sep-21,0.039,0.039,0.001521,0.001521
11:10:58,30-Sep-21,0.039,0.039,0.001521,0.001521
11:10:58,30-Sep-21,0.039,0.039,0.001521,0.001521
11:10:58,30-Sep-21,0.039,0.039,0.001521,0.001521
11:10:58,30-Sep-21,0.039,0.039,0.001521,0.001521
11:10:58,30-Sep-21,0.039,0.039,0.001521,0.001521
11:10:58,30-Sep-21,0.039,0.039,0.001521,0.001521
11:10:58,30-Sep-21,0.039,0.039,0.001521,0.001521
11:10:58,30-Sep-21,0.039,0.039,0.001521,0.001521
11:10:58,30-Sep-21,0.039,0.039,0.001521,0.001521
11:10:58,30-Sep-21,0.039,0.039,0.001521,0.001521
11:10:58,30-Sep-21,0.039,0.039,0.001521,0.001521
11:10:58,30-Sep-21,0.039,0.039,0.001521,0.001521
11:10:58,30-Sep-21,0.039,0.039,0.001521,0.001521
11:10:58,30-Sep-21,0.039,0.039,0.001521,0.001521
11:10:58,30-Sep-21,0.039,0.039,0.001521,0.001521
11:10:58,30-Sep-21,0.039,0.039,0.001521,0.001521
11:10:58,30-Sep-21,0.039,0.039,0.001521,0.001521
11:10:58,30-Sep-21,0.039,0.039,0.001521,0.001521
11:10:58,30-Sep-21,0.039,0.039,0.001521,0.001521
11:10:58,30-Sep-21,0.039,0.039,0.001521,0.001521
11:10:58,30-Sep-21,0.039,0.039,0.001521,0.001521
11:10:58,30-Sep-21,0.039,0.039,0.001521,0.001521
11:10:58,30-Sep-21,0.039,0.039,0.001521,0.001521
11:10:58,30-Sep-21,0.039,0.039,0.001521,0.001521
11:10:58,30-Sep-21,0.039,0.039,0.001521,0.001521
11:10:58,30-Sep-21,0.039,0.039,0.001521,0.001521
11:10:58,30-Sep-21,0.039,0.039,0.001521,0.001521
11:10:58,30-Sep-21,0.039,0.039,0.001521,0.001521
11:10:58,30-Sep-21,0.039,0.039,0.001521,0.001521
11:10:58,30-Sep-21,0.039,0.04,0.001521,0.0016
11:10:58,30-Sep-21,0.039,0.04,0.001521,0.0016
11:10:58,30-Sep-21,0.039,0.04,0.001521,0.0016
11:10:58,30-Sep-21,0.039,0.04,0.001521,0.0016
11:10:58,30-Sep-21,0.039,0.04,0.001521,0.0016
11:10:58,30-Sep-21,0.039,0.04,0.001521,0.0016
11:10:58,30-Sep-21,0.039,0.04,0.001521,0.0016
11:10:58,30-Sep-21,0.039,0.04,0.001521,0.0016
11:10:58,30-Sep-21,0.039,0.04,0.001521,0.0016
11:10:58,30-Sep-21,0.039,0.04,0.001521,0.0016
11:10:58,30-Sep-21,0.039,0.04,0.001521,0.0016
11:10:58,30-Sep-21,0.039,0.04,0.001521,0.0016
11:10:58,30-Sep-21,0.039,0.04,0.001521,0.0016
11:10:58,30-Sep-21,0.044,0.04,0.001936,0.0016
11:10:58,30-Sep-21,0.044,0.04,0.001936,0.0016
11:10:58,30-Sep-21,0.044,0.04,0.001936,0.0016
11:10:58,30-Sep-21,0.044,0.04,0.001936,0.0016
11:10:58,30-Sep-21,0.044,0.04,0.001936,0.0016
11:10:58,30-Sep-21,0.044,0.04,0.001936,0.0016
11:10:58,30-Sep-21,0.039,0.04,0.001521,0.0016
11:10:58,30-Sep-21,0.039,0.04,0.001521,0.0016
11:10:58,30-Sep-21,0.039,0.04,0.001521,0.0016
11:10:58,30-Sep-21,0.039,0.04,0.001521,0.0016
11:10:58,30-Sep-21,0.039,0.04,0.001521,0.0016
11:10:58,30-Sep-21,0.039,0.04,0.001521,0.0016
11:10:58,30-Sep-21,0.039,0.04,0.001521,0.0016
11:10:58,30-Sep-21,0.039,0.04,0.001521,0.0016
11:10:58,30-Sep-21,0.039,0.04,0.001521,0.0016
11:10:58,30-Sep-21,0.039,0.04,0.001521,0.0016
11:10:58,30-Sep-21,0.039,0.04,0.001521,0.0016
11:10:58,30-Sep-21,0.039,0.04,0.001521,0.0016
11:10:58,30-Sep-21,0.039,0.04,0.001521,0.0016
11:10:58,30-Sep-21,0.039,0.04,0.001521,0.0016
11:10:58,30-Sep-21,0.039,0.039,0.001521,0.001521
11:10:58,30-Sep-21,0.039,0.039,0.001521,0.001521
11:10:58,30-Sep-21,0.039,0.039,0.001521,0.001521
11:10:58,30-Sep-21,0.039,0.039,0.001521,0.001521
11:10:58,30-Sep-21,0.039,0.039,0.001521,0.001521
11:10:58,30-Sep-21,0.039,0.039,0.001521,0.001521
11:10:58,30-Sep-21,0.039,0.039,0.001521,0.001521
11:10:58,30-Sep-21,0.039,0.039,0.001521,0.001521
11:10:58,30-Sep-21,0.039,0.039,0.001521,0.001521
11:10:58,30-Sep-21,0.039,0.039,0.001521,0.001521
11:10:58,30-Sep-21,0.039,0.039,0.001521,0.001521
11:10:58,30-Sep-21,0.039,0.039,0.001521,0.001521
11:10:58,30-Sep-21,0.039,0.039,0.001521,0.001521
11:10:58,30-Sep-21,0.039,0.039,0.001521,0.001521
11:10:58,30-Sep-21,0.039,0.039,0.001521,0.001521
11:10:58,30-Sep-21,0.039,0.039,0.001521,0.001521
11:10:58,30-Sep-21,0.039,0.039,0.001521,0.001521
11:10:58,30-Sep-21,0.039,0.039,0.001521,0.001521
11:10:58,30-Sep-21,0.039,0.039,0.001521,0.001521
11:10:58,30-Sep-21,0.039,0.039,0.001521,0.001521
11:10:58,30-Sep-21,0.039,0.039,0.001521,0.001521
11:10:58,30-Sep-21,0.039,0.039,0.001521,0.001521
11:10:58,30-Sep-21,0.039,0.039,0.001521,0.001521
11:10:58,30-Sep-21,0.039,0.039,0.001521,0.001521
11:10:58,30-Sep-21,0.039,0.039,0.001521,0.001521
11:10:58,30-Sep-21,0.039,0.039,0.001521,0.001521
11:10:58,30-Sep-21,0.039,0.039,0.001521,0.001521
11:10:58,30-Sep-21,0.039,0.039,0.001521,0.001521
11:10:58,30-Sep-21,0.039,0.039,0.001521,0.001521
11:10:58,30-Sep-21,0.039,0.039,0.001521,0.001521
11:10:58,30-Sep-21,0.039,0.039,0.001521,0.001521
11:10:58,30-Sep-21,0.039,0.039,0.001521,0.001521
11:10:58,30-Sep-21,0.039,0.039,0.001521,0.001521
11:10:58,30-Sep-21,0.039,0.039,0.001521,0.001521
11:10:58,30-Sep-21,0.039,0.039,0.001521,0.001521
11:10:58,30-Sep-21,0.039,0.039,0.001521,0.001521
11:10:58,30-Sep-21,0.039,0.039,0.001521,0.001521
11:10:58,30-Sep-21,0.039,0.039,0.001521,0.001521
11:10:58,30-Sep-21,0.039,0.039,0.001521,0.001521
11:10:58,30-Sep-21,0.039,0.04,0.001521,0.0016
11:10:58,30-Sep-21,0.039,0.04,0.001521,0.0016
11:10:58,30-Sep-21,0.039,0.04,0.001521,0.0016
11:10:58,30-Sep-21,0.039,0.04,0.001521,0.0016
11:10:58,30-Sep-21,0.039,0.04,0.001521,0.0016
11:10:58,30-Sep-21,0.039,0.04,0.001521,0.0016
11:10:58,30-Sep-21,0.039,0.04,0.001521,0.0016
11:10:58,30-Sep-21,0.039,0.041,0.001521,0.001681
11:10:58,30-Sep-21,0.039,0.041,0.001521,0.001681
11:10:58,30-Sep-21,0.039,0.041,0.001521,0.001681
11:10:58,30-Sep-21,0.039,0.041,0.001521,0.001681
11:10:58,30-Sep-21,0.039,0.041,0.001521,0.001681
11:10:58,30-Sep-21,0.039,0.041,0.001521,0.001681
11:10:58,30-Sep-21,0.039,0.042,0.001521,0.001764
11:10:58,30-Sep-21,0.044,0.042,0.001936,0.001764
11:10:58,30-Sep-21,0.044,0.042,0.001936,0.001764
11:10:58,30-Sep-21,0.044,0.042,0.001936,0.001764
11:10:58,30-Sep-21,0.044,0.042,0.001936,0.001764
11:10:58,30-Sep-21,0.044,0.042,0.001936,0.001764
11:10:58,30-Sep-21,0.044,0.043,0.001936,0.001849
11:10:58,30-Sep-21,0.044,0.043,0.001936,0.001849
11:10:58,30-Sep-21,0.044,0.043,0.001936,0.001849
11:10:58,30-Sep-21,0.044,0.043,0.001936,0.001849
11:10:58,30-Sep-21,0.044,0.043,0.001936,0.001849
11:10:58,30-Sep-21,0.044,0.043,0.001936,0.001849
11:10:58,30-Sep-21,0.044,0.043,0.001936,0.001849
11:10:58,30-Sep-21,0.044,0.043,0.001936,0.001849
11:10:58,30-Sep-21,0.044,0.043,0.001936,0.001849
11:10:58,30-Sep-21,0.044,0.043,0.001936,0.001849
11:10:58,30-Sep-21,0.044,0.043,0.001936,0.001849
11:10:58,30-Sep-21,0.044,0.043,0.001936,0.001849
11:10:58,30-Sep-21,0.044,0.043,0.001936,0.001849
11:10:58,30-Sep-21,0.044,0.043,0.001936,0.001849
11:10:58,30-Sep-21,0.044,0.043,0.001936,0.001849
11:10:58,30-Sep-21,0.044,0.043,0.001936,0.001849
11:10:58,30-Sep-21,0.044,0.043,0.001936,0.001849
11:10:58,30-Sep-21,0.044,0.043,0.001936,0.001849
11:10:58,30-Sep-21,0.044,0.043,0.001936,0.001849
11:10:58,30-Sep-21,0.044,0.043,0.001936,0.001849
11:10:58,30-Sep-21,0.044,0.042,0.001936,0.001764
11:10:58,30-Sep-21,0.044,0.042,0.001936,0.001764
11:10:58,30-Sep-21,0.044,0.042,0.001936,0.001764
11:10:58,30-Sep-21,0.044,0.042,0.001936,0.001764
11:10:59,30-Sep-21,0.039,0.042,0.001521,0.001764
11:10:59,30-Sep-21,0.039,0.042,0.001521,0.001764
11:10:59,30-Sep-21,0.039,0.042,0.001521,0.001764
11:10:59,30-Sep-21,0.039,0.042,0.001521,0.001764
11:10:59,30-Sep-21,0.039,0.041,0.001521,0.001681
11:10:59,30-Sep-21,0.039,0.041,0.001521,0.001681
11:10:59,30-Sep-21,0.039,0.041,0.001521,0.001681
11:10:59,30-Sep-21,0.039,0.041,0.001521,0.001681
11:10:59,30-Sep-21,0.039,0.041,0.001521,0.001681
11:10:59,30-Sep-21,0.039,0.041,0.001521,0.001681
11:10:59,30-Sep-21,0.039,0.041,0.001521,0.001681
11:10:59,30-Sep-21,0.039,0.041,0.001521,0.001681
11:10:59,30-Sep-21,0.039,0.041,0.001521,0.001681
11:10:59,30-Sep-21,0.039,0.041,0.001521,0.001681
11:10:59,30-Sep-21,0.039,0.04,0.001521,0.0016
11:10:59,30-Sep-21,0.039,0.04,0.001521,0.0016
11:10:59,30-Sep-21,0.044,0.04,0.001936,0.0016
11:10:59,30-Sep-21,0.044,0.04,0.001936,0.0016
11:10:59,30-Sep-21,0.044,0.04,0.001936,0.0016
11:10:59,30-Sep-21,0.044,0.04,0.001936,0.0016
11:10:59,30-Sep-21,0.044,0.04,0.001936,0.0016
11:10:59,30-Sep-21,0.039,0.04,0.001521,0.0016
11:10:59,30-Sep-21,0.039,0.04,0.001521,0.0016
11:10:59,30-Sep-21,0.039,0.04,0.001521,0.0016
11:10:59,30-Sep-21,0.039,0.04,0.001521,0.0016
11:10:59,30-Sep-21,0.044,0.04,0.001936,0.0016
11:10:59,30-Sep-21,0.044,0.041,0.001936,0.001681
11:10:59,30-Sep-21,0.044,0.041,0.001936,0.001681
11:10:59,30-Sep-21,0.039,0.041,0.001521,0.001681
11:10:59,30-Sep-21,0.039,0.041,0.001521,0.001681
11:10:59,30-Sep-21,0.039,0.041,0.001521,0.001681
11:10:59,30-Sep-21,0.039,0.041,0.001521,0.001681
11:10:59,30-Sep-21,0.039,0.041,0.001521,0.001681
11:10:59,30-Sep-21,0.039,0.041,0.001521,0.001681
11:10:59,30-Sep-21,0.039,0.041,0.001521,0.001681
11:10:59,30-Sep-21,0.039,0.041,0.001521,0.001681
11:10:59,30-Sep-21,0.039,0.041,0.001521,0.001681
11:10:59,30-Sep-21,0.039,0.041,0.001521,0.001681
11:10:59,30-Sep-21,0.039,0.041,0.001521,0.001681
11:10:59,30-Sep-21,0.039,0.041,0.001521,0.001681
11:10:59,30-Sep-21,0.039,0.041,0.001521,0.001681
11:10:59,30-Sep-21,0.044,0.042,0.001936,0.001764
11:10:59,30-Sep-21,0.044,0.042,0.001936,0.001764
11:10:59,30-Sep-21,0.044,0.042,0.001936,0.001764
11:10:59,30-Sep-21,0.044,0.042,0.001936,0.001764
11:10:59,30-Sep-21,0.044,0.042,0.001936,0.001764
11:10:59,30-Sep-21,0.044,0.042,0.001936,0.001764
11:10:59,30-Sep-21,0.044,0.042,0.001936,0.001764
11:10:59,30-Sep-21,0.044,0.042,0.001936,0.001764
11:10:59,30-Sep-21,0.044,0.042,0.001936,0.001764
11:10:59,30-Sep-21,0.044,0.042,0.001936,0.001764
11:10:59,30-Sep-21,0.044,0.042,0.001936,0.001764
11:10:59,30-Sep-21,0.039,0.042,0.001521,0.001764
11:10:59,30-Sep-21,0.039,0.042,0.001521,0.001764
11:10:59,30-Sep-21,0.039,0.042,0.001521,0.001764
11:10:59,30-Sep-21,0.044,0.042,0.001936,0.001764
11:10:59,30-Sep-21,0.044,0.041,0.001936,0.001681
11:10:59,30-Sep-21,0.044,0.041,0.001936,0.001681
11:10:59,30-Sep-21,0.044,0.041,0.001936,0.001681
11:10:59,30-Sep-21,0.044,0.041,0.001936,0.001681
11:10:59,30-Sep-21,0.044,0.041,0.001936,0.001681
11:10:59,30-Sep-21,0.039,0.041,0.001521,0.001681
11:10:59,30-Sep-21,0.039,0.041,0.001521,0.001681
11:10:59,30-Sep-21,0.039,0.041,0.001521,0.001681
11:10:59,30-Sep-21,0.039,0.041,0.001521,0.001681
11:10:59,30-Sep-21,0.039,0.041,0.001521,0.001681
11:10:59,30-Sep-21,0.039,0.04,0.001521,0.0016
11:10:59,30-Sep-21,0.039,0.04,0.001521,0.0016
11:10:59,30-Sep-21,0.039,0.04,0.001521,0.0016
11:10:59,30-Sep-21,0.039,0.04,0.001521,0.0016
11:10:59,30-Sep-21,0.039,0.04,0.001521,0.0016
11:10:59,30-Sep-21,0.039,0.04,0.001521,0.0016
11:10:59,30-Sep-21,0.039,0.04,0.001521,0.0016
11:10:59,30-Sep-21,0.039,0.04,0.001521,0.0016
11:10:59,30-Sep-21,0.039,0.039,0.001521,0.001521
11:10:59,30-Sep-21,0.039,0.039,0.001521,0.001521
11:10:59,30-Sep-21,0.039,0.039,0.001521,0.001521
11:10:59,30-Sep-21,0.039,0.039,0.001521,0.001521
11:10:59,30-Sep-21,0.039,0.039,0.001521,0.001521
11:10:59,30-Sep-21,0.039,0.039,0.001521,0.001521
11:10:59,30-Sep-21,0.039,0.039,0.001521,0.001521
11:10:59,30-Sep-21,0.039,0.039,0.001521,0.001521
11:10:59,30-Sep-21,0.039,0.039,0.001521,0.001521
11:10:59,30-Sep-21,0.039,0.039,0.001521,0.001521
11:10:59,30-Sep-21,0.039,0.039,0.001521,0.001521
11:10:59,30-Sep-21,0.039,0.039,0.001521,0.001521
11:10:59,30-Sep-21,0.039,0.039,0.001521,0.001521
11:10:59,30-Sep-21,0.039,0.039,0.001521,0.001521
11:10:59,30-Sep-21,0.039,0.039,0.001521,0.001521
11:10:59,30-Sep-21,0.039,0.039,0.001521,0.001521
11:10:59,30-Sep-21,0.039,0.039,0.001521,0.001521
11:10:59,30-Sep-21,0.039,0.039,0.001521,0.001521
11:10:59,30-Sep-21,0.039,0.039,0.001521,0.001521
11:10:59,30-Sep-21,0.039,0.039,0.001521,0.001521
11:10:59,30-Sep-21,0.039,0.039,0.001521,0.001521
11:10:59,30-Sep-21,0.039,0.039,0.001521,0.001521
11:10:59,30-Sep-21,0.039,0.039,0.001521,0.001521
11:10:59,30-Sep-21,0.039,0.039,0.001521,0.001521
11:10:59,30-Sep-21,0.039,0.039,0.001521,0.001521
11:10:59,30-Sep-21,0.039,0.039,0.001521,0.001521
11:10:59,30-Sep-21,0.039,0.039,0.001521,0.001521
11:10:59,30-Sep-21,0.039,0.039,0.001521,0.001521
11:10:59,30-Sep-21,0.039,0.039,0.001521,0.001521
11:10:59,30-Sep-21,0.039,0.039,0.001521,0.001521
11:10:59,30-Sep-21,0.039,0.039,0.001521,0.001521
11:10:59,30-Sep-21,0.039,0.039,0.001521,0.001521
11:10:59,30-Sep-21,0.039,0.039,0.001521,0.001521
11:10:59,30-Sep-21,0.039,0.039,0.001521,0.001521
11:10:59,30-Sep-21,0.039,0.039,0.001521,0.001521
11:10:59,30-Sep-21,0.039,0.04,0.001521,0.0016
11:10:59,30-Sep-21,0.039,0.04,0.001521,0.0016
11:10:59,30-Sep-21,0.039,0.04,0.001521,0.0016
11:10:59,30-Sep-21,0.039,0.04,0.001521,0.0016
11:10:59,30-Sep-21,0.039,0.04,0.001521,0.0016
11:10:59,30-Sep-21,0.039,0.04,0.001521,0.0016
11:10:59,30-Sep-21,0.039,0.04,0.001521,0.0016
11:10:59,30-Sep-21,0.044,0.04,0.001936,0.0016
11:10:59,30-Sep-21,0.044,0.04,0.001936,0.0016
11:10:59,30-Sep-21,0.039,0.04,0.001521,0.0016
11:10:59,30-Sep-21,0.039,0.04,0.001521,0.0016
11:10:59,30-Sep-21,0.039,0.04,0.001521,0.0016
11:10:59,30-Sep-21,0.044,0.04,0.001936,0.0016
11:10:59,30-Sep-21,0.044,0.041,0.001936,0.001681
11:10:59,30-Sep-21,0.044,0.041,0.001936,0.001681
11:10:59,30-Sep-21,0.044,0.041,0.001936,0.001681
11:10:59,30-Sep-21,0.039,0.041,0.001521,0.001681
11:10:59,30-Sep-21,0.039,0.041,0.001521,0.001681
11:10:59,30-Sep-21,0.039,0.041,0.001521,0.001681
11:10:59,30-Sep-21,0.039,0.041,0.001521,0.001681
11:10:59,30-Sep-21,0.039,0.041,0.001521,0.001681
11:10:59,30-Sep-21,0.039,0.041,0.001521,0.001681
11:10:59,30-Sep-21,0.039,0.041,0.001521,0.001681
11:10:59,30-Sep-21,0.039,0.041,0.001521,0.001681
11:10:59,30-Sep-21,0.039,0.041,0.001521,0.001681
11:10:59,30-Sep-21,0.039,0.041,0.001521,0.001681
11:10:59,30-Sep-21,0.039,0.041,0.001521,0.001681
11:10:59,30-Sep-21,0.039,0.041,0.001521,0.001681
11:10:59,30-Sep-21,0.039,0.041,0.001521,0.001681
11:10:59,30-Sep-21,0.039,0.041,0.001521,0.001681
11:10:59,30-Sep-21,0.044,0.041,0.001936,0.001681
11:10:59,30-Sep-21,0.044,0.041,0.001936,0.001681
11:10:59,30-Sep-21,0.044,0.041,0.001936,0.001681
11:10:59,30-Sep-21,0.044,0.041,0.001936,0.001681
11:10:59,30-Sep-21,0.044,0.041,0.001936,0.001681
11:10:59,30-Sep-21,0.044,0.041,0.001936,0.001681
11:10:59,30-Sep-21,0.044,0.041,0.001936,0.001681
11:10:59,30-Sep-21,0.044,0.041,0.001936,0.001681
11:10:59,30-Sep-21,0.044,0.041,0.001936,0.001681
11:10:59,30-Sep-21,0.044,0.041,0.001936,0.001681
11:10:59,30-Sep-21,0.044,0.041,0.001936,0.001681
11:10:59,30-Sep-21,0.039,0.041,0.001521,0.001681
11:10:59,30-Sep-21,0.039,0.041,0.001521,0.001681
11:10:59,30-Sep-21,0.039,0.04,0.001521,0.0016
11:10:59,30-Sep-21,0.039,0.04,0.001521,0.0016
11:10:59,30-Sep-21,0.039,0.04,0.001521,0.0016
11:10:59,30-Sep-21,0.039,0.04,0.001521,0.0016
11:10:59,30-Sep-21,0.039,0.04,0.001521,0.0016
11:10:59,30-Sep-21,0.039,0.04,0.001521,0.0016
11:10:59,30-Sep-21,0.039,0.04,0.001521,0.0016
11:10:59,30-Sep-21,0.039,0.04,0.001521,0.0016
11:10:59,30-Sep-21,0.039,0.04,0.001521,0.0016
11:10:59,30-Sep-21,0.039,0.04,0.001521,0.0016
11:10:59,30-Sep-21,0.039,0.04,0.001521,0.0016
11:10:59,30-Sep-21,0.039,0.04,0.001521,0.0016
11:10:59,30-Sep-21,0.039,0.039,0.001521,0.001521
11:10:59,30-Sep-21,0.039,0.039,0.001521,0.001521
11:10:59,30-Sep-21,0.039,0.039,0.001521,0.001521
11:10:59,30-Sep-21,0.039,0.039,0.001521,0.001521
11:10:59,30-Sep-21,0.039,0.039,0.001521,0.001521
11:10:59,30-Sep-21,0.039,0.039,0.001521,0.001521
11:10:59,30-Sep-21,0.039,0.039,0.001521,0.001521
11:10:59,30-Sep-21,0.039,0.039,0.001521,0.001521
11:10:59,30-Sep-21,0.039,0.039,0.001521,0.001521
11:10:59,30-Sep-21,0.039,0.039,0.001521,0.001521
11:10:59,30-Sep-21,0.039,0.039,0.001521,0.001521
11:10:59,30-Sep-21,0.039,0.039,0.001521,0.001521
11:10:59,30-Sep-21,0.039,0.039,0.001521,0.001521
11:10:59,30-Sep-21,0.039,0.039,0.001521,0.001521
11:10:59,30-Sep-21,0.039,0.04,0.001521,0.0016
11:10:59,30-Sep-21,0.039,0.04,0.001521,0.0016
11:10:59,30-Sep-21,0.039,0.04,0.001521,0.0016
11:11:00,30-Sep-21,0.039,0.04,0.001521,0.0016
11:11:00,30-Sep-21,0.039,0.04,0.001521,0.0016
11:11:00,30-Sep-21,0.039,0.04,0.001521,0.0016
11:11:00,30-Sep-21,0.039,0.04,0.001521,0.0016
11:11:00,30-Sep-21,0.039,0.04,0.001521,0.0016
11:11:00,30-Sep-21,0.039,0.04,0.001521,0.0016
11:11:00,30-Sep-21,0.039,0.04,0.001521,0.0016
11:11:00,30-Sep-21,0.039,0.04,0.001521,0.0016
11:11:00,30-Sep-21,0.039,0.04,0.001521,0.0016
11:11:00,30-Sep-21,0.039,0.04,0.001521,0.0016
11:11:00,30-Sep-21,0.044,0.04,0.001936,0.0016
11:11:00,30-Sep-21,0.044,0.041,0.001936,0.001681
11:11:00,30-Sep-21,0.044,0.041,0.001936,0.001681
11:11:00,30-Sep-21,0.044,0.041,0.001936,0.001681
11:11:00,30-Sep-21,0.044,0.041,0.001936,0.001681
11:11:00,30-Sep-21,0.044,0.041,0.001936,0.001681
11:11:00,30-Sep-21,0.044,0.041,0.001936,0.001681
11:11:00,30-Sep-21,0.044,0.041,0.001936,0.001681
11:11:00,30-Sep-21,0.044,0.041,0.001936,0.001681
11:11:00,30-Sep-21,0.044,0.041,0.001936,0.001681
11:11:00,30-Sep-21,0.039,0.041,0.001521,0.001681
11:11:00,30-Sep-21,0.039,0.041,0.001521,0.001681
11:11:00,30-Sep-21,0.039,0.041,0.001521,0.001681
11:11:00,30-Sep-21,0.039,0.041,0.001521,0.001681
11:11:00,30-Sep-21,0.039,0.041,0.001521,0.001681
11:11:00,30-Sep-21,0.039,0.041,0.001521,0.001681
11:11:00,30-Sep-21,0.039,0.041,0.001521,0.001681
11:11:00,30-Sep-21,0.039,0.041,0.001521,0.001681
11:11:00,30-Sep-21,0.039,0.041,0.001521,0.001681
11:11:00,30-Sep-21,0.044,0.041,0.001936,0.001681
11:11:00,30-Sep-21,0.039,0.041,0.001521,0.001681
11:11:00,30-Sep-21,0.039,0.041,0.001521,0.001681
11:11:00,30-Sep-21,0.044,0.041,0.001936,0.001681
11:11:00,30-Sep-21,0.044,0.041,0.001936,0.001681
11:11:00,30-Sep-21,0.039,0.041,0.001521,0.001681
11:11:00,30-Sep-21,0.039,0.041,0.001521,0.001681
11:11:00,30-Sep-21,0.039,0.041,0.001521,0.001681
11:11:00,30-Sep-21,0.039,0.041,0.001521,0.001681
11:11:00,30-Sep-21,0.039,0.041,0.001521,0.001681
11:11:00,30-Sep-21,0.039,0.041,0.001521,0.001681
11:11:00,30-Sep-21,0.039,0.041,0.001521,0.001681
11:11:00,30-Sep-21,0.039,0.041,0.001521,0.001681
11:11:00,30-Sep-21,0.039,0.041,0.001521,0.001681
11:11:00,30-Sep-21,0.039,0.041,0.001521,0.001681
11:11:00,30-Sep-21,0.039,0.041,0.001521,0.001681
11:11:00,30-Sep-21,0.039,0.041,0.001521,0.001681
11:11:00,30-Sep-21,0.039,0.041,0.001521,0.001681
11:11:00,30-Sep-21,0.039,0.041,0.001521,0.001681
11:11:00,30-Sep-21,0.039,0.041,0.001521,0.001681
11:11:00,30-Sep-21,0.039,0.041,0.001521,0.001681
11:11:00,30-Sep-21,0.044,0.041,0.001936,0.001681
11:11:00,30-Sep-21,0.044,0.041,0.001936,0.001681
11:11:00,30-Sep-21,0.044,0.041,0.001936,0.001681
11:11:00,30-Sep-21,0.044,0.041,0.001936,0.001681
11:11:00,30-Sep-21,0.044,0.041,0.001936,0.001681
11:11:00,30-Sep-21,0.044,0.041,0.001936,0.001681
11:11:00,30-Sep-21,0.044,0.04,0.001936,0.0016
11:11:00,30-Sep-21,0.044,0.04,0.001936,0.0016
11:11:00,30-Sep-21,0.039,0.04,0.001521,0.0016
11:11:00,30-Sep-21,0.039,0.04,0.001521,0.0016
11:11:00,30-Sep-21,0.039,0.04,0.001521,0.0016
11:11:00,30-Sep-21,0.044,0.04,0.001936,0.0016
11:11:00,30-Sep-21,0.044,0.04,0.001936,0.0016
11:11:00,30-Sep-21,0.039,0.04,0.001521,0.0016
11:11:00,30-Sep-21,0.039,0.04,0.001521,0.0016
11:11:00,30-Sep-21,0.039,0.04,0.001521,0.0016
11:11:00,30-Sep-21,0.039,0.04,0.001521,0.0016
11:11:00,30-Sep-21,0.039,0.04,0.001521,0.0016
11:11:00,30-Sep-21,0.039,0.04,0.001521,0.0016
11:11:00,30-Sep-21,0.039,0.04,0.001521,0.0016
11:11:00,30-Sep-21,0.039,0.04,0.001521,0.0016
11:11:00,30-Sep-21,0.039,0.04,0.001521,0.0016
11:11:00,30-Sep-21,0.039,0.04,0.001521,0.0016
11:11:00,30-Sep-21,0.039,0.04,0.001521,0.0016
11:11:00,30-Sep-21,0.039,0.04,0.001521,0.0016
11:11:00,30-Sep-21,0.039,0.04,0.001521,0.0016
11:11:00,30-Sep-21,0.039,0.04,0.001521,0.0016
11:11:00,30-Sep-21,0.039,0.04,0.001521,0.0016
11:11:00,30-Sep-21,0.039,0.04,0.001521,0.0016
11:11:00,30-Sep-21,0.039,0.04,0.001521,0.0016
11:11:00,30-Sep-21,0.039,0.04,0.001521,0.0016
11:11:00,30-Sep-21,0.039,0.04,0.001521,0.0016
11:11:00,30-Sep-21,0.039,0.04,0.001521,0.0016
11:11:00,30-Sep-21,0.039,0.04,0.001521,0.0016
11:11:00,30-Sep-21,0.039,0.04,0.001521,0.0016
11:11:00,30-Sep-21,0.039,0.04,0.001521,0.0016
11:11:00,30-Sep-21,0.039,0.04,0.001521,0.0016
11:11:00,30-Sep-21,0.039,0.04,0.001521,0.0016
11:11:00,30-Sep-21,0.039,0.04,0.001521,0.0016
11:11:00,30-Sep-21,0.039,0.04,0.001521,0.0016
11:11:00,30-Sep-21,0.044,0.04,0.001936,0.0016
11:11:00,30-Sep-21,0.039,0.04,0.001521,0.0016
11:11:00,30-Sep-21,0.039,0.04,0.001521,0.0016
11:11:00,30-Sep-21,0.039,0.04,0.001521,0.0016
11:11:00,30-Sep-21,0.044,0.04,0.001936,0.0016
11:11:00,30-Sep-21,0.044,0.04,0.001936,0.0016
11:11:00,30-Sep-21,0.044,0.04,0.001936,0.0016
11:11:00,30-Sep-21,0.039,0.04,0.001521,0.0016
11:11:00,30-Sep-21,0.039,0.041,0.001521,0.001681
11:11:00,30-Sep-21,0.039,0.041,0.001521,0.001681
11:11:00,30-Sep-21,0.039,0.041,0.001521,0.001681
11:11:00,30-Sep-21,0.039,0.041,0.001521,0.001681
11:11:00,30-Sep-21,0.039,0.041,0.001521,0.001681
11:11:00,30-Sep-21,0.039,0.041,0.001521,0.001681
11:11:00,30-Sep-21,0.044,0.041,0.001936,0.001681
11:11:00,30-Sep-21,0.044,0.041,0.001936,0.001681
11:11:00,30-Sep-21,0.044,0.041,0.001936,0.001681
11:11:00,30-Sep-21,0.044,0.041,0.001936,0.001681
11:11:01,30-Sep-21,0.044,0.041,0.001936,0.001681
11:11:01,30-Sep-21,0.044,0.041,0.001936,0.001681
11:11:01,30-Sep-21,0.044,0.041,0.001936,0.001681
11:11:01,30-Sep-21,0.044,0.041,0.001936,0.001681
11:11:01,30-Sep-21,0.044,0.041,0.001936,0.001681
11:11:01,30-Sep-21,0.039,0.041,0.001521,0.001681
11:11:01,30-Sep-21,0.039,0.041,0.001521,0.001681
11:11:01,30-Sep-21,0.044,0.041,0.001936,0.001681
11:11:01,30-Sep-21,0.039,0.041,0.001521,0.001681
11:11:01,30-Sep-21,0.039,0.041,0.001521,0.001681
11:11:01,30-Sep-21,0.039,0.041,0.001521,0.001681
11:11:01,30-Sep-21,0.039,0.041,0.001521,0.001681
11:11:01,30-Sep-21,0.039,0.041,0.001521,0.001681
11:11:01,30-Sep-21,0.039,0.041,0.001521,0.001681
11:11:01,30-Sep-21,0.039,0.041,0.001521,0.001681
11:11:01,30-Sep-21,0.039,0.042,0.001521,0.001764
11:11:01,30-Sep-21,0.039,0.042,0.001521,0.001764
11:11:01,30-Sep-21,0.039,0.042,0.001521,0.001764
11:11:01,30-Sep-21,0.039,0.042,0.001521,0.001764
11:11:01,30-Sep-21,0.039,0.042,0.001521,0.001764
11:11:01,30-Sep-21,0.039,0.042,0.001521,0.001764
11:11:01,30-Sep-21,0.044,0.042,0.001936,0.001764
11:11:01,30-Sep-21,0.044,0.042,0.001936,0.001764
11:11:01,30-Sep-21,0.039,0.042,0.001521,0.001764
11:11:01,30-Sep-21,0.044,0.042,0.001936,0.001764
11:11:01,30-Sep-21,0.044,0.042,0.001936,0.001764
11:11:01,30-Sep-21,0.044,0.042,0.001936,0.001764
11:11:01,30-Sep-21,0.044,0.042,0.001936,0.001764
11:11:01,30-Sep-21,0.044,0.042,0.001936,0.001764
11:11:01,30-Sep-21,0.044,0.042,0.001936,0.001764
11:11:01,30-Sep-21,0.044,0.042,0.001936,0.001764
11:11:01,30-Sep-21,0.044,0.043,0.001936,0.001849
11:11:01,30-Sep-21,0.044,0.043,0.001936,0.001849
11:11:01,30-Sep-21,0.044,0.043,0.001936,0.001849
11:11:01,30-Sep-21,0.044,0.043,0.001936,0.001849
11:11:01,30-Sep-21,0.044,0.043,0.001936,0.001849
11:11:01,30-Sep-21,0.044,0.043,0.001936,0.001849
11:11:01,30-Sep-21,0.044,0.043,0.001936,0.001849
11:11:01,30-Sep-21,0.044,0.043,0.001936,0.001849
11:11:01,30-Sep-21,0.044,0.043,0.001936,0.001849
11:11:01,30-Sep-21,0.044,0.043,0.001936,0.001849
11:11:01,30-Sep-21,0.044,0.043,0.001936,0.001849
11:11:01,30-Sep-21,0.044,0.043,0.001936,0.001849
11:11:01,30-Sep-21,0.044,0.043,0.001936,0.001849
11:11:01,30-Sep-21,0.044,0.043,0.001936,0.001849
11:11:01,30-Sep-21,0.044,0.043,0.001936,0.001849
11:11:01,30-Sep-21,0.044,0.043,0.001936,0.001849
11:11:01,30-Sep-21,0.039,0.043,0.001521,0.001849
11:11:01,30-Sep-21,0.039,0.043,0.001521,0.001849
11:11:01,30-Sep-21,0.039,0.043,0.001521,0.001849
11:11:01,30-Sep-21,0.039,0.043,0.001521,0.001849
11:11:01,30-Sep-21,0.039,0.043,0.001521,0.001849
11:11:01,30-Sep-21,0.039,0.043,0.001521,0.001849
11:11:01,30-Sep-21,0.039,0.043,0.001521,0.001849
11:11:01,30-Sep-21,0.039,0.043,0.001521,0.001849
11:11:01,30-Sep-21,0.039,0.043,0.001521,0.001849
11:11:01,30-Sep-21,0.044,0.043,0.001936,0.001849
11:11:01,30-Sep-21,0.044,0.043,0.001936,0.001849
11:11:01,30-Sep-21,0.044,0.043,0.001936,0.001849
11:11:01,30-Sep-21,0.044,0.043,0.001936,0.001849
11:11:01,30-Sep-21,0.044,0.043,0.001936,0.001849
11:11:01,30-Sep-21,0.044,0.043,0.001936,0.001849
11:11:01,30-Sep-21,0.044,0.043,0.001936,0.001849
11:11:01,30-Sep-21,0.044,0.043,0.001936,0.001849
11:11:01,30-Sep-21,0.044,0.043,0.001936,0.001849
11:11:01,30-Sep-21,0.044,0.043,0.001936,0.001849
11:11:01,30-Sep-21,0.044,0.043,0.001936,0.001849
11:11:01,30-Sep-21,0.044,0.043,0.001936,0.001849
11:11:01,30-Sep-21,0.044,0.043,0.001936,0.001849
11:11:01,30-Sep-21,0.044,0.043,0.001936,0.001849
11:11:01,30-Sep-21,0.044,0.043,0.001936,0.001849
11:11:01,30-Sep-21,0.044,0.043,0.001936,0.001849
11:11:01,30-Sep-21,0.044,0.043,0.001936,0.001849
11:11:01,30-Sep-21,0.044,0.043,0.001936,0.001849
11:11:01,30-Sep-21,0.044,0.043,0.001936,0.001849
11:11:01,30-Sep-21,0.044,0.043,0.001936,0.001849
11:11:01,30-Sep-21,0.044,0.043,0.001936,0.001849
11:11:01,30-Sep-21,0.044,0.043,0.001936,0.001849
11:11:01,30-Sep-21,0.044,0.043,0.001936,0.001849
11:11:01,30-Sep-21,0.039,0.043,0.001521,0.001849
11:11:01,30-Sep-21,0.039,0.042,0.001521,0.001764
11:11:01,30-Sep-21,0.039,0.042,0.001521,0.001764
11:11:01,30-Sep-21,0.039,0.042,0.001521,0.001764
11:11:01,30-Sep-21,0.039,0.042,0.001521,0.001764
11:11:01,30-Sep-21,0.039,0.042,0.001521,0.001764
11:11:01,30-Sep-21,0.044,0.042,0.001936,0.001764
11:11:01,30-Sep-21,0.044,0.042,0.001936,0.001764
11:11:01,30-Sep-21,0.044,0.042,0.001936,0.001764
11:11:01,30-Sep-21,0.044,0.042,0.001936,0.001764
11:11:01,30-Sep-21,0.044,0.042,0.001936,0.001764
11:11:01,30-Sep-21,0.044,0.042,0.001936,0.001764
11:11:01,30-Sep-21,0.044,0.042,0.001936,0.001764
11:11:01,30-Sep-21,0.044,0.041,0.001936,0.001681
11:11:01,30-Sep-21,0.044,0.041,0.001936,0.001681
11:11:01,30-Sep-21,0.044,0.041,0.001936,0.001681
11:11:01,30-Sep-21,0.044,0.041,0.001936,0.001681
11:11:01,30-Sep-21,0.044,0.041,0.001936,0.001681
11:11:01,30-Sep-21,0.039,0.041,0.001521,0.001681
11:11:01,30-Sep-21,0.039,0.041,0.001521,0.001681
11:11:01,30-Sep-21,0.039,0.041,0.001521,0.001681
11:11:01,30-Sep-21,0.039,0.041,0.001521,0.001681
11:11:01,30-Sep-21,0.039,0.041,0.001521,0.001681
11:11:01,30-Sep-21,0.039,0.041,0.001521,0.001681
11:11:01,30-Sep-21,0.039,0.041,0.001521,0.001681
11:11:01,30-Sep-21,0.039,0.041,0.001521,0.001681
11:11:01,30-Sep-21,0.039,0.041,0.001521,0.001681
11:11:01,30-Sep-21,0.039,0.041,0.001521,0.001681
11:11:01,30-Sep-21,0.039,0.041,0.001521,0.001681
11:11:01,30-Sep-21,0.039,0.041,0.001521,0.001681
11:11:01,30-Sep-21,0.039,0.041,0.001521,0.001681
11:11:01,30-Sep-21,0.039,0.041,0.001521,0.001681
11:11:01,30-Sep-21,0.039,0.041,0.001521,0.001681
11:11:01,30-Sep-21,0.039,0.041,0.001521,0.001681
11:11:01,30-Sep-21,0.039,0.041,0.001521,0.001681
11:11:01,30-Sep-21,0.039,0.041,0.001521,0.001681
11:11:01,30-Sep-21,0.039,0.041,0.001521,0.001681
11:11:01,30-Sep-21,0.044,0.042,0.001936,0.001764
11:11:01,30-Sep-21,0.044,0.042,0.001936,0.001764
11:11:01,30-Sep-21,0.044,0.042,0.001936,0.001764
11:11:01,30-Sep-21,0.044,0.042,0.001936,0.001764
11:11:01,30-Sep-21,0.044,0.042,0.001936,0.001764
11:11:02,30-Sep-21,0.044,0.042,0.001936,0.001764
11:11:02,30-Sep-21,0.044,0.042,0.001936,0.001764
11:11:02,30-Sep-21,0.044,0.042,0.001936,0.001764
11:11:02,30-Sep-21,0.044,0.042,0.001936,0.001764
11:11:02,30-Sep-21,0.044,0.043,0.001936,0.001849
11:11:02,30-Sep-21,0.044,0.043,0.001936,0.001849
11:11:02,30-Sep-21,0.044,0.043,0.001936,0.001849
11:11:02,30-Sep-21,0.044,0.043,0.001936,0.001849
11:11:02,30-Sep-21,0.044,0.043,0.001936,0.001849
11:11:02,30-Sep-21,0.044,0.043,0.001936,0.001849
11:11:02,30-Sep-21,0.044,0.043,0.001936,0.001849
11:11:02,30-Sep-21,0.044,0.043,0.001936,0.001849
11:11:02,30-Sep-21,0.044,0.043,0.001936,0.001849
11:11:02,30-Sep-21,0.044,0.043,0.001936,0.001849
11:11:02,30-Sep-21,0.039,0.044,0.001521,0.001936
11:11:02,30-Sep-21,0.039,0.044,0.001521,0.001936
11:11:02,30-Sep-21,0.044,0.044,0.001936,0.001936
11:11:02,30-Sep-21,0.044,0.044,0.001936,0.001936
11:11:02,30-Sep-21,0.044,0.044,0.001936,0.001936
11:11:02,30-Sep-21,0.044,0.044,0.001936,0.001936
11:11:02,30-Sep-21,0.044,0.044,0.001936,0.001936
11:11:02,30-Sep-21,0.044,0.044,0.001936,0.001936
11:11:02,30-Sep-21,0.044,0.044,0.001936,0.001936
11:11:02,30-Sep-21,0.044,0.044,0.001936,0.001936
11:11:02,30-Sep-21,0.044,0.044,0.001936,0.001936
11:11:02,30-Sep-21,0.044,0.044,0.001936,0.001936
11:11:02,30-Sep-21,0.044,0.044,0.001936,0.001936
11:11:02,30-Sep-21,0.044,0.044,0.001936,0.001936
11:11:02,30-Sep-21,0.044,0.044,0.001936,0.001936
11:11:02,30-Sep-21,0.044,0.044,0.001936,0.001936
11:11:02,30-Sep-21,0.044,0.044,0.001936,0.001936
11:11:02,30-Sep-21,0.044,0.044,0.001936,0.001936
11:11:02,30-Sep-21,0.044,0.044,0.001936,0.001936
11:11:02,30-Sep-21,0.044,0.044,0.001936,0.001936
11:11:02,30-Sep-21,0.039,0.044,0.001521,0.001936
11:11:02,30-Sep-21,0.044,0.044,0.001936,0.001936
11:11:02,30-Sep-21,0.044,0.044,0.001936,0.001936
11:11:02,30-Sep-21,0.044,0.044,0.001936,0.001936
11:11:02,30-Sep-21,0.044,0.044,0.001936,0.001936
11:11:02,30-Sep-21,0.044,0.044,0.001936,0.001936
11:11:02,30-Sep-21,0.044,0.044,0.001936,0.001936
11:11:02,30-Sep-21,0.044,0.044,0.001936,0.001936
11:11:02,30-Sep-21,0.044,0.044,0.001936,0.001936
11:11:02,30-Sep-21,0.044,0.044,0.001936,0.001936
11:11:02,30-Sep-21,0.044,0.044,0.001936,0.001936
11:11:02,30-Sep-21,0.044,0.044,0.001936,0.001936
11:11:02,30-Sep-21,0.044,0.044,0.001936,0.001936
11:11:02,30-Sep-21,0.044,0.044,0.001936,0.001936
11:11:02,30-Sep-21,0.044,0.044,0.001936,0.001936
11:11:02,30-Sep-21,0.044,0.043,0.001936,0.001849
11:11:02,30-Sep-21,0.044,0.043,0.001936,0.001849
11:11:02,30-Sep-21,0.039,0.043,0.001521,0.001849
11:11:02,30-Sep-21,0.044,0.043,0.001936,0.001849
11:11:02,30-Sep-21,0.044,0.043,0.001936,0.001849
11:11:02,30-Sep-21,0.044,0.043,0.001936,0.001849
11:11:02,30-Sep-21,0.044,0.043,0.001936,0.001849
11:11:02,30-Sep-21,0.044,0.043,0.001936,0.001849
11:11:02,30-Sep-21,0.044,0.043,0.001936,0.001849
11:11:02,30-Sep-21,0.044,0.043,0.001936,0.001849
11:11:02,30-Sep-21,0.044,0.043,0.001936,0.001849
11:11:02,30-Sep-21,0.044,0.043,0.001936,0.001849
11:11:02,30-Sep-21,0.044,0.043,0.001936,0.001849
11:11:02,30-Sep-21,0.044,0.043,0.001936,0.001849
11:11:02,30-Sep-21,0.044,0.043,0.001936,0.001849
11:11:02,30-Sep-21,0.044,0.043,0.001936,0.001849
11:11:02,30-Sep-21,0.039,0.043,0.001521,0.001849
11:11:02,30-Sep-21,0.039,0.043,0.001521,0.001849
11:11:02,30-Sep-21,0.039,0.043,0.001521,0.001849
11:11:02,30-Sep-21,0.039,0.043,0.001521,0.001849
11:11:02,30-Sep-21,0.039,0.043,0.001521,0.001849
11:11:02,30-Sep-21,0.044,0.043,0.001936,0.001849
11:11:02,30-Sep-21,0.044,0.043,0.001936,0.001849
11:11:02,30-Sep-21,0.044,0.043,0.001936,0.001849
11:11:02,30-Sep-21,0.044,0.043,0.001936,0.001849
11:11:02,30-Sep-21,0.044,0.043,0.001936,0.001849
11:11:02,30-Sep-21,0.044,0.043,0.001936,0.001849
11:11:02,30-Sep-21,0.044,0.043,0.001936,0.001849
11:11:02,30-Sep-21,0.044,0.043,0.001936,0.001849
11:11:02,30-Sep-21,0.044,0.043,0.001936,0.001849
11:11:02,30-Sep-21,0.044,0.043,0.001936,0.001849
11:11:02,30-Sep-21,0.044,0.043,0.001936,0.001849
11:11:02,30-Sep-21,0.044,0.043,0.001936,0.001849
11:11:02,30-Sep-21,0.044,0.043,0.001936,0.001849
11:11:02,30-Sep-21,0.044,0.043,0.001936,0.001849
11:11:02,30-Sep-21,0.044,0.043,0.001936,0.001849
11:11:02,30-Sep-21,0.044,0.043,0.001936,0.001849
11:11:02,30-Sep-21,0.044,0.043,0.001936,0.001849
11:11:02,30-Sep-21,0.044,0.043,0.001936,0.001849
11:11:02,30-Sep-21,0.044,0.043,0.001936,0.001849
11:11:02,30-Sep-21,0.044,0.043,0.001936,0.001849
11:11:02,30-Sep-21,0.039,0.043,0.001521,0.001849
11:11:02,30-Sep-21,0.039,0.043,0.001521,0.001849
11:11:02,30-Sep-21,0.039,0.043,0.001521,0.001849
11:11:02,30-Sep-21,0.044,0.043,0.001936,0.001849
11:11:02,30-Sep-21,0.044,0.043,0.001936,0.001849
11:11:03,30-Sep-21,0.044,0.043,0.001936,0.001849
11:11:03,30-Sep-21,0.044,0.043,0.001936,0.001849
11:11:03,30-Sep-21,0.044,0.043,0.001936,0.001849
11:11:03,30-Sep-21,0.039,0.043,0.001521,0.001849
11:11:03,30-Sep-21,0.039,0.043,0.001521,0.001849
11:11:03,30-Sep-21,0.039,0.043,0.001521,0.001849
11:11:03,30-Sep-21,0.039,0.043,0.001521,0.001849
11:11:03,30-Sep-21,0.039,0.043,0.001521,0.001849
11:11:03,30-Sep-21,0.039,0.043,0.001521,0.001849
11:11:03,30-Sep-21,0.044,0.042,0.001936,0.001764
11:11:03,30-Sep-21,0.044,0.042,0.001936,0.001764
11:11:03,30-Sep-21,0.044,0.042,0.001936,0.001764
11:11:03,30-Sep-21,0.044,0.042,0.001936,0.001764
11:11:03,30-Sep-21,0.044,0.042,0.001936,0.001764
11:11:03,30-Sep-21,0.044,0.042,0.001936,0.001764
11:11:03,30-Sep-21,0.044,0.042,0.001936,0.001764
11:11:03,30-Sep-21,0.044,0.042,0.001936,0.001764
11:11:03,30-Sep-21,0.044,0.042,0.001936,0.001764
11:11:03,30-Sep-21,0.044,0.042,0.001936,0.001764
11:11:03,30-Sep-21,0.044,0.042,0.001936,0.001764
11:11:03,30-Sep-21,0.044,0.042,0.001936,0.001764
11:11:03,30-Sep-21,0.044,0.042,0.001936,0.001764
11:11:03,30-Sep-21,0.044,0.042,0.001936,0.001764
11:11:03,30-Sep-21,0.044,0.042,0.001936,0.001764
11:11:03,30-Sep-21,0.044,0.042,0.001936,0.001764
11:11:03,30-Sep-21,0.044,0.042,0.001936,0.001764
11:11:03,30-Sep-21,0.044,0.042,0.001936,0.001764
11:11:03,30-Sep-21,0.044,0.042,0.001936,0.001764
11:11:03,30-Sep-21,0.039,0.042,0.001521,0.001764
11:11:03,30-Sep-21,0.039,0.042,0.001521,0.001764
11:11:03,30-Sep-21,0.039,0.042,0.001521,0.001764
11:11:03,30-Sep-21,0.039,0.042,0.001521,0.001764
11:11:03,30-Sep-21,0.039,0.042,0.001521,0.001764
11:11:03,30-Sep-21,0.039,0.042,0.001521,0.001764
11:11:03,30-Sep-21,0.039,0.042,0.001521,0.001764
11:11:03,30-Sep-21,0.039,0.042,0.001521,0.001764
11:11:03,30-Sep-21,0.039,0.042,0.001521,0.001764
11:11:03,30-Sep-21,0.039,0.042,0.001521,0.001764
11:11:03,30-Sep-21,0.039,0.042,0.001521,0.001764
11:11:03,30-Sep-21,0.039,0.042,0.001521,0.001764
11:11:03,30-Sep-21,0.044,0.042,0.001936,0.001764
11:11:03,30-Sep-21,0.044,0.042,0.001936,0.001764
11:11:03,30-Sep-21,0.044,0.042,0.001936,0.001764
11:11:03,30-Sep-21,0.044,0.042,0.001936,0.001764
11:11:03,30-Sep-21,0.044,0.042,0.001936,0.001764
11:11:03,30-Sep-21,0.044,0.042,0.001936,0.001764
11:11:03,30-Sep-21,0.044,0.042,0.001936,0.001764
11:11:03,30-Sep-21,0.044,0.042,0.001936,0.001764
11:11:03,30-Sep-21,0.039,0.042,0.001521,0.001764
11:11:03,30-Sep-21,0.044,0.042,0.001936,0.001764
11:11:03,30-Sep-21,0.044,0.042,0.001936,0.001764
11:11:03,30-Sep-21,0.039,0.042,0.001521,0.001764
11:11:03,30-Sep-21,0.039,0.042,0.001521,0.001764
11:11:03,30-Sep-21,0.039,0.042,0.001521,0.001764
11:11:03,30-Sep-21,0.039,0.042,0.001521,0.001764
11:11:03,30-Sep-21,0.039,0.042,0.001521,0.001764
11:11:03,30-Sep-21,0.044,0.042,0.001936,0.001764
11:11:03,30-Sep-21,0.044,0.042,0.001936,0.001764
11:11:03,30-Sep-21,0.044,0.042,0.001936,0.001764
11:11:03,30-Sep-21,0.044,0.042,0.001936,0.001764
11:11:03,30-Sep-21,0.044,0.042,0.001936,0.001764
11:11:03,30-Sep-21,0.044,0.042,0.001936,0.001764
11:11:03,30-Sep-21,0.044,0.042,0.001936,0.001764
11:11:03,30-Sep-21,0.044,0.042,0.001936,0.001764
11:11:03,30-Sep-21,0.044,0.042,0.001936,0.001764
11:11:03,30-Sep-21,0.044,0.042,0.001936,0.001764
11:11:03,30-Sep-21,0.044,0.042,0.001936,0.001764
11:11:03,30-Sep-21,0.039,0.042,0.001521,0.001764
11:11:03,30-Sep-21,0.039,0.042,0.001521,0.001764
11:11:03,30-Sep-21,0.039,0.042,0.001521,0.001764
11:11:03,30-Sep-21,0.039,0.042,0.001521,0.001764
11:11:03,30-Sep-21,0.039,0.042,0.001521,0.001764
11:11:03,30-Sep-21,0.044,0.041,0.001936,0.001681
11:11:03,30-Sep-21,0.044,0.041,0.001936,0.001681
11:11:03,30-Sep-21,0.044,0.041,0.001936,0.001681
11:11:03,30-Sep-21,0.044,0.041,0.001936,0.001681
11:11:03,30-Sep-21,0.044,0.041,0.001936,0.001681
11:11:03,30-Sep-21,0.044,0.041,0.001936,0.001681
11:11:03,30-Sep-21,0.039,0.041,0.001521,0.001681
11:11:03,30-Sep-21,0.039,0.041,0.001521,0.001681
11:11:03,30-Sep-21,0.039,0.041,0.001521,0.001681
11:11:03,30-Sep-21,0.039,0.04,0.001521,0.0016
11:11:03,30-Sep-21,0.039,0.04,0.001521,0.0016
11:11:03,30-Sep-21,0.039,0.04,0.001521,0.0016
11:11:03,30-Sep-21,0.039,0.04,0.001521,0.0016
11:11:03,30-Sep-21,0.039,0.04,0.001521,0.0016
11:11:03,30-Sep-21,0.039,0.04,0.001521,0.0016
11:11:03,30-Sep-21,0.039,0.04,0.001521,0.0016
11:11:03,30-Sep-21,0.039,0.04,0.001521,0.0016
11:11:03,30-Sep-21,0.039,0.04,0.001521,0.0016
11:11:03,30-Sep-21,0.039,0.04,0.001521,0.0016
11:11:03,30-Sep-21,0.039,0.04,0.001521,0.0016
11:11:03,30-Sep-21,0.039,0.039,0.001521,0.001521
11:11:03,30-Sep-21,0.044,0.039,0.001936,0.001521
11:11:03,30-Sep-21,0.039,0.039,0.001521,0.001521
11:11:03,30-Sep-21,0.039,0.039,0.001521,0.001521
11:11:03,30-Sep-21,0.039,0.039,0.001521,0.001521
11:11:03,30-Sep-21,0.039,0.039,0.001521,0.001521
11:11:04,30-Sep-21,0.039,0.039,0.001521,0.001521
11:11:04,30-Sep-21,0.039,0.039,0.001521,0.001521
11:11:04,30-Sep-21,0.039,0.039,0.001521,0.001521
11:11:04,30-Sep-21,0.039,0.039,0.001521,0.001521
11:11:04,30-Sep-21,0.039,0.039,0.001521,0.001521
11:11:04,30-Sep-21,0.039,0.039,0.001521,0.001521
11:11:04,30-Sep-21,0.039,0.039,0.001521,0.001521
11:11:04,30-Sep-21,0.039,0.039,0.001521,0.001521
11:11:04,30-Sep-21,0.039,0.039,0.001521,0.001521
11:11:04,30-Sep-21,0.039,0.039,0.001521,0.001521
11:11:04,30-Sep-21,0.039,0.039,0.001521,0.001521
11:11:04,30-Sep-21,0.039,0.039,0.001521,0.001521
11:11:04,30-Sep-21,0.039,0.039,0.001521,0.001521
11:11:04,30-Sep-21,0.039,0.039,0.001521,0.001521
11:11:04,30-Sep-21,0.039,0.039,0.001521,0.001521
11:11:04,30-Sep-21,0.039,0.039,0.001521,0.001521
11:11:04,30-Sep-21,0.039,0.039,0.001521,0.001521
11:11:04,30-Sep-21,0.039,0.04,0.001521,0.0016
11:11:04,30-Sep-21,0.039,0.04,0.001521,0.0016
11:11:04,30-Sep-21,0.039,0.04,0.001521,0.0016
11:11:04,30-Sep-21,0.039,0.04,0.001521,0.0016
11:11:04,30-Sep-21,0.039,0.04,0.001521,0.0016
11:11:04,30-Sep-21,0.039,0.04,0.001521,0.0016
11:11:04,30-Sep-21,0.039,0.04,0.001521,0.0016
11:11:04,30-Sep-21,0.039,0.04,0.001521,0.0016
11:11:04,30-Sep-21,0.044,0.04,0.001936,0.0016
11:11:04,30-Sep-21,0.044,0.04,0.001936,0.0016
11:11:04,30-Sep-21,0.044,0.04,0.001936,0.0016
11:11:04,30-Sep-21,0.044,0.04,0.001936,0.0016
11:11:04,30-Sep-21,0.044,0.04,0.001936,0.0016
11:11:04,30-Sep-21,0.039,0.04,0.001521,0.0016
11:11:04,30-Sep-21,0.039,0.04,0.001521,0.0016
11:11:04,30-Sep-21,0.039,0.04,0.001521,0.0016
11:11:04,30-Sep-21,0.039,0.04,0.001521,0.0016
11:11:04,30-Sep-21,0.039,0.04,0.001521,0.0016
11:11:04,30-Sep-21,0.039,0.04,0.001521,0.0016
11:11:04,30-Sep-21,0.039,0.04,0.001521,0.0016
11:11:04,30-Sep-21,0.039,0.04,0.001521,0.0016
11:11:04,30-Sep-21,0.039,0.04,0.001521,0.0016
11:11:04,30-Sep-21,0.039,0.04,0.001521,0.0016
11:11:04,30-Sep-21,0.039,0.04,0.001521,0.0016
11:11:04,30-Sep-21,0.039,0.04,0.001521,0.0016
11:11:04,30-Sep-21,0.039,0.04,0.001521,0.0016
11:11:04,30-Sep-21,0.039,0.04,0.001521,0.0016
11:11:04,30-Sep-21,0.039,0.039,0.001521,0.001521
11:11:04,30-Sep-21,0.039,0.039,0.001521,0.001521
11:11:04,30-Sep-21,0.039,0.039,0.001521,0.001521
11:11:04,30-Sep-21,0.039,0.039,0.001521,0.001521
11:11:04,30-Sep-21,0.039,0.039,0.001521,0.001521
11:11:04,30-Sep-21,0.039,0.039,0.001521,0.001521
11:11:04,30-Sep-21,0.039,0.039,0.001521,0.001521
11:11:04,30-Sep-21,0.039,0.039,0.001521,0.001521
11:11:04,30-Sep-21,0.039,0.039,0.001521,0.001521
11:11:04,30-Sep-21,0.039,0.039,0.001521,0.001521
11:11:04,30-Sep-21,0.039,0.039,0.001521,0.001521
11:11:04,30-Sep-21,0.039,0.039,0.001521,0.001521
11:11:04,30-Sep-21,0.039,0.039,0.001521,0.001521
11:11:04,30-Sep-21,0.039,0.039,0.001521,0.001521
11:11:04,30-Sep-21,0.039,0.039,0.001521,0.001521
11:11:04,30-Sep-21,0.039,0.039,0.001521,0.001521
11:11:04,30-Sep-21,0.039,0.039,0.001521,0.001521
11:11:04,30-Sep-21,0.039,0.039,0.001521,0.001521
11:11:04,30-Sep-21,0.039,0.039,0.001521,0.001521
11:11:04,30-Sep-21,0.039,0.039,0.001521,0.001521
11:11:04,30-Sep-21,0.044,0.039,0.001936,0.001521
11:11:04,30-Sep-21,0.044,0.039,0.001936,0.001521
11:11:04,30-Sep-21,0.039,0.039,0.001521,0.001521
11:11:04,30-Sep-21,0.039,0.039,0.001521,0.001521
11:11:04,30-Sep-21,0.039,0.039,0.001521,0.001521
11:11:04,30-Sep-21,0.039,0.039,0.001521,0.001521
11:11:04,30-Sep-21,0.039,0.039,0.001521,0.001521
11:11:04,30-Sep-21,0.039,0.039,0.001521,0.001521
11:11:04,30-Sep-21,0.039,0.039,0.001521,0.001521
11:11:04,30-Sep-21,0.039,0.039,0.001521,0.001521
11:11:04,30-Sep-21,0.039,0.039,0.001521,0.001521
11:11:04,30-Sep-21,0.039,0.039,0.001521,0.001521
11:11:04,30-Sep-21,0.039,0.039,0.001521,0.001521
11:11:04,30-Sep-21,0.039,0.039,0.001521,0.001521
11:11:04,30-Sep-21,0.039,0.039,0.001521,0.001521
11:11:04,30-Sep-21,0.039,0.039,0.001521,0.001521
11:11:04,30-Sep-21,0.039,0.039,0.001521,0.001521
11:11:04,30-Sep-21,0.044,0.039,0.001936,0.001521
11:11:04,30-Sep-21,0.039,0.04,0.001521,0.0016
11:11:04,30-Sep-21,0.039,0.04,0.001521,0.0016
11:11:04,30-Sep-21,0.039,0.04,0.001521,0.0016
11:11:04,30-Sep-21,0.039,0.04,0.001521,0.0016
11:11:04,30-Sep-21,0.039,0.04,0.001521,0.0016
11:11:04,30-Sep-21,0.039,0.04,0.001521,0.0016
11:11:05,30-Sep-21,0.039,0.04,0.001521,0.0016
11:11:05,30-Sep-21,0.039,0.04,0.001521,0.0016
11:11:05,30-Sep-21,0.039,0.04,0.001521,0.0016
11:11:05,30-Sep-21,0.039,0.04,0.001521,0.0016
11:11:05,30-Sep-21,0.039,0.04,0.001521,0.0016
11:11:05,30-Sep-21,0.039,0.04,0.001521,0.0016
11:11:05,30-Sep-21,0.039,0.04,0.001521,0.0016
11:11:05,30-Sep-21,0.039,0.04,0.001521,0.0016
11:11:05,30-Sep-21,0.039,0.04,0.001521,0.0016
11:11:05,30-Sep-21,0.039,0.04,0.001521,0.0016
11:11:05,30-Sep-21,0.039,0.04,0.001521,0.0016
11:11:05,30-Sep-21,0.044,0.04,0.001936,0.0016
11:11:05,30-Sep-21,0.044,0.039,0.001936,0.001521
11:11:05,30-Sep-21,0.044,0.039,0.001936,0.001521
11:11:05,30-Sep-21,0.039,0.039,0.001521,0.001521
11:11:05,30-Sep-21,0.039,0.039,0.001521,0.001521
11:11:05,30-Sep-21,0.039,0.039,0.001521,0.001521
11:11:05,30-Sep-21,0.039,0.039,0.001521,0.001521
11:11:05,30-Sep-21,0.039,0.039,0.001521,0.001521
11:11:05,30-Sep-21,0.039,0.039,0.001521,0.001521
11:11:05,30-Sep-21,0.039,0.039,0.001521,0.001521
11:11:05,30-Sep-21,0.039,0.039,0.001521,0.001521
11:11:05,30-Sep-21,0.039,0.039,0.001521,0.001521
11:11:05,30-Sep-21,0.039,0.039,0.001521,0.001521
11:11:05,30-Sep-21,0.039,0.039,0.001521,0.001521
11:11:05,30-Sep-21,0.039,0.039,0.001521,0.001521
11:11:05,30-Sep-21,0.039,0.039,0.001521,0.001521
11:11:05,30-Sep-21,0.039,0.039,0.001521,0.001521
11:11:05,30-Sep-21,0.039,0.039,0.001521,0.001521
11:11:05,30-Sep-21,0.039,0.039,0.001521,0.001521
11:11:05,30-Sep-21,0.039,0.039,0.001521,0.001521
11:11:05,30-Sep-21,0.039,0.039,0.001521,0.001521
11:11:05,30-Sep-21,0.039,0.039,0.001521,0.001521
11:11:05,30-Sep-21,0.039,0.039,0.001521,0.001521
11:11:05,30-Sep-21,0.039,0.039,0.001521,0.001521
11:11:05,30-Sep-21,0.039,0.039,0.001521,0.001521
11:11:05,30-Sep-21,0.039,0.039,0.001521,0.001521
11:11:05,30-Sep-21,0.039,0.039,0.001521,0.001521
11:11:05,30-Sep-21,0.039,0.039,0.001521,0.001521
11:11:05,30-Sep-21,0.039,0.039,0.001521,0.001521
11:11:05,30-Sep-21,0.039,0.039,0.001521,0.001521
11:11:05,30-Sep-21,0.039,0.039,0.001521,0.001521
11:11:05,30-Sep-21,0.039,0.039,0.001521,0.001521
11:11:05,30-Sep-21,0.039,0.039,0.001521,0.001521
11:11:05,30-Sep-21,0.039,0.04,0.001521,0.0016
11:11:05,30-Sep-21,0.039,0.04,0.001521,0.0016
11:11:05,30-Sep-21,0.039,0.04,0.001521,0.0016
11:11:05,30-Sep-21,0.039,0.04,0.001521,0.0016
11:11:05,30-Sep-21,0.039,0.04,0.001521,0.0016
11:11:05,30-Sep-21,0.039,0.04,0.001521,0.0016
11:11:05,30-Sep-21,0.039,0.04,0.001521,0.0016
11:11:05,30-Sep-21,0.039,0.04,0.001521,0.0016
11:11:05,30-Sep-21,0.039,0.04,0.001521,0.0016
11:11:05,30-Sep-21,0.039,0.04,0.001521,0.0016
11:11:05,30-Sep-21,0.044,0.04,0.001936,0.0016
11:11:05,30-Sep-21,0.044,0.04,0.001936,0.0016
11:11:05,30-Sep-21,0.039,0.04,0.001521,0.0016
11:11:05,30-Sep-21,0.044,0.04,0.001936,0.0016
11:11:05,30-Sep-21,0.044,0.04,0.001936,0.0016
11:11:05,30-Sep-21,0.044,0.04,0.001936,0.0016
11:11:05,30-Sep-21,0.039,0.04,0.001521,0.0016
11:11:05,30-Sep-21,0.039,0.04,0.001521,0.0016
11:11:05,30-Sep-21,0.039,0.04,0.001521,0.0016
11:11:05,30-Sep-21,0.039,0.04,0.001521,0.0016
11:11:05,30-Sep-21,0.039,0.04,0.001521,0.0016
11:11:05,30-Sep-21,0.039,0.04,0.001521,0.0016
11:11:05,30-Sep-21,0.039,0.04,0.001521,0.0016
11:11:05,30-Sep-21,0.039,0.04,0.001521,0.0016
11:11:05,30-Sep-21,0.039,0.04,0.001521,0.0016
11:11:05,30-Sep-21,0.039,0.04,0.001521,0.0016
11:11:05,30-Sep-21,0.039,0.04,0.001521,0.0016
11:11:05,30-Sep-21,0.039,0.04,0.001521,0.0016
11:11:05,30-Sep-21,0.039,0.04,0.001521,0.0016
11:11:05,30-Sep-21,0.044,0.04,0.001936,0.0016
11:11:05,30-Sep-21,0.044,0.04,0.001936,0.0016
11:11:05,30-Sep-21,0.044,0.04,0.001936,0.0016
11:11:05,30-Sep-21,0.039,0.04,0.001521,0.0016
11:11:05,30-Sep-21,0.039,0.04,0.001521,0.0016
11:11:05,30-Sep-21,0.039,0.04,0.001521,0.0016
11:11:05,30-Sep-21,0.039,0.04,0.001521,0.0016
11:11:05,30-Sep-21,0.039,0.04,0.001521,0.0016
11:11:05,30-Sep-21,0.039,0.04,0.001521,0.0016
11:11:05,30-Sep-21,0.039,0.04,0.001521,0.0016
11:11:05,30-Sep-21,0.039,0.04,0.001521,0.0016
11:11:05,30-Sep-21,0.039,0.04,0.001521,0.0016
11:11:05,30-Sep-21,0.039,0.04,0.001521,0.0016
11:11:05,30-Sep-21,0.039,0.039,0.001521,0.001521
11:11:05,30-Sep-21,0.039,0.039,0.001521,0.001521
11:11:05,30-Sep-21,0.039,0.039,0.001521,0.001521
11:11:05,30-Sep-21,0.039,0.039,0.001521,0.001521
11:11:05,30-Sep-21,0.039,0.039,0.001521,0.001521
11:11:05,30-Sep-21,0.039,0.039,0.001521,0.001521
11:11:05,30-Sep-21,0.039,0.039,0.001521,0.001521
11:11:05,30-Sep-21,0.039,0.039,0.001521,0.001521
11:11:05,30-Sep-21,0.039,0.039,0.001521,0.001521
11:11:05,30-Sep-21,0.039,0.039,0.001521,0.001521
11:11:05,30-Sep-21,0.039,0.039,0.001521,0.001521
11:11:05,30-Sep-21,0.039,0.039,0.001521,0.001521
11:11:05,30-Sep-21,0.039,0.039,0.001521,0.001521
11:11:05,30-Sep-21,0.039,0.039,0.001521,0.001521
11:11:05,30-Sep-21,0.039,0.039,0.001521,0.001521
11:11:05,30-Sep-21,0.039,0.039,0.001521,0.001521
11:11:05,30-Sep-21,0.039,0.039,0.001521,0.001521
11:11:05,30-Sep-21,0.039,0.039,0.001521,0.001521
11:11:05,30-Sep-21,0.039,0.039,0.001521,0.001521
11:11:05,30-Sep-21,0.039,0.039,0.001521,0.001521
11:11:05,30-Sep-21,0.039,0.039,0.001521,0.001521
11:11:05,30-Sep-21,0.044,0.039,0.001936,0.001521
11:11:05,30-Sep-21,0.044,0.039,0.001936,0.001521
11:11:05,30-Sep-21,0.044,0.039,0.001936,0.001521
11:11:05,30-Sep-21,0.039,0.039,0.001521,0.001521
11:11:05,30-Sep-21,0.039,0.039,0.001521,0.001521
11:11:05,30-Sep-21,0.039,0.039,0.001521,0.001521
11:11:05,30-Sep-21,0.039,0.039,0.001521,0.001521
11:11:05,30-Sep-21,0.039,0.039,0.001521,0.001521
11:11:05,30-Sep-21,0.039,0.039,0.001521,0.001521
11:11:06,30-Sep-21,0.039,0.039,0.001521,0.001521
11:11:06,30-Sep-21,0.039,0.039,0.001521,0.001521
11:11:06,30-Sep-21,0.039,0.039,0.001521,0.001521
11:11:06,30-Sep-21,0.039,0.039,0.001521,0.001521
11:11:06,30-Sep-21,0.039,0.039,0.001521,0.001521
11:11:06,30-Sep-21,0.039,0.039,0.001521,0.001521
11:11:06,30-Sep-21,0.039,0.039,0.001521,0.001521
11:11:06,30-Sep-21,0.039,0.039,0.001521,0.001521
11:11:06,30-Sep-21,0.039,0.039,0.001521,0.001521
11:11:06,30-Sep-21,0.039,0.039,0.001521,0.001521
11:11:06,30-Sep-21,0.039,0.039,0.001521,0.001521
11:11:06,30-Sep-21,0.039,0.039,0.001521,0.001521
11:11:06,30-Sep-21,0.039,0.039,0.001521,0.001521
11:11:06,30-Sep-21,0.039,0.039,0.001521,0.001521
11:11:06,30-Sep-21,0.039,0.039,0.001521,0.001521
11:11:06,30-Sep-21,0.039,0.039,0.001521,0.001521
11:11:06,30-Sep-21,0.039,0.039,0.001521,0.001521
11:11:06,30-Sep-21,0.039,0.039,0.001521,0.001521
11:11:06,30-Sep-21,0.039,0.039,0.001521,0.001521
11:11:06,30-Sep-21,0.039,0.039,0.001521,0.001521
11:11:06,30-Sep-21,0.039,0.039,0.001521,0.001521
11:11:06,30-Sep-21,0.039,0.039,0.001521,0.001521
11:11:06,30-Sep-21,0.039,0.039,0.001521,0.001521
11:11:06,30-Sep-21,0.039,0.039,0.001521,0.001521
11:11:06,30-Sep-21,0.039,0.039,0.001521,0.001521
11:11:06,30-Sep-21,0.039,0.039,0.001521,0.001521
11:11:06,30-Sep-21,0.039,0.039,0.001521,0.001521
11:11:06,30-Sep-21,0.039,0.039,0.001521,0.001521
11:11:06,30-Sep-21,0.039,0.039,0.001521,0.001521
11:11:06,30-Sep-21,0.039,0.039,0.001521,0.001521
11:11:06,30-Sep-21,0.039,0.039,0.001521,0.001521
11:11:06,30-Sep-21,0.039,0.039,0.001521,0.001521
11:11:06,30-Sep-21,0.039,0.039,0.001521,0.001521
11:11:06,30-Sep-21,0.039,0.039,0.001521,0.001521
11:11:06,30-Sep-21,0.039,0.039,0.001521,0.001521
11:11:06,30-Sep-21,0.039,0.039,0.001521,0.001521
11:11:06,30-Sep-21,0.039,0.039,0.001521,0.001521
11:11:06,30-Sep-21,0.039,0.039,0.001521,0.001521
11:11:06,30-Sep-21,0.039,0.039,0.001521,0.001521
11:11:06,30-Sep-21,0.039,0.039,0.001521,0.001521
11:11:06,30-Sep-21,0.039,0.039,0.001521,0.001521
11:11:06,30-Sep-21,0.039,0.039,0.001521,0.001521
11:11:06,30-Sep-21,0.039,0.039,0.001521,0.001521
11:11:06,30-Sep-21,0.039,0.039,0.001521,0.001521
11:11:06,30-Sep-21,0.039,0.039,0.001521,0.001521
11:11:06,30-Sep-21,0.039,0.039,0.001521,0.001521
11:11:06,30-Sep-21,0.039,0.039,0.001521,0.001521
11:11:06,30-Sep-21,0.039,0.039,0.001521,0.001521
11:11:06,30-Sep-21,0.039,0.039,0.001521,0.001521
11:11:06,30-Sep-21,0.039,0.039,0.001521,0.001521
11:11:06,30-Sep-21,0.039,0.039,0.001521,0.001521
11:11:06,30-Sep-21,0.039,0.039,0.001521,0.001521
11:11:06,30-Sep-21,0.039,0.039,0.001521,0.001521
11:11:06,30-Sep-21,0.039,0.039,0.001521,0.001521
11:11:06,30-Sep-21,0.039,0.039,0.001521,0.001521
11:11:06,30-Sep-21,0.039,0.039,0.001521,0.001521
11:11:06,30-Sep-21,0.039,0.039,0.001521,0.001521
11:11:06,30-Sep-21,0.039,0.039,0.001521,0.001521
11:11:06,30-Sep-21,0.039,0.039,0.001521,0.001521
11:11:06,30-Sep-21,0.039,0.039,0.001521,0.001521
11:11:06,30-Sep-21,0.039,0.039,0.001521,0.001521
11:11:06,30-Sep-21,0.039,0.04,0.001521,0.0016
11:11:06,30-Sep-21,0.039,0.04,0.001521,0.0016
11:11:06,30-Sep-21,0.039,0.04,0.001521,0.0016
11:11:06,30-Sep-21,0.039,0.04,0.001521,0.0016
11:11:06,30-Sep-21,0.039,0.04,0.001521,0.0016
11:11:06,30-Sep-21,0.039,0.04,0.001521,0.0016
11:11:06,30-Sep-21,0.039,0.04,0.001521,0.0016
11:11:06,30-Sep-21,0.039,0.04,0.001521,0.0016
11:11:06,30-Sep-21,0.039,0.04,0.001521,0.0016
11:11:06,30-Sep-21,0.039,0.04,0.001521,0.0016
11:11:06,30-Sep-21,0.039,0.04,0.001521,0.0016
11:11:06,30-Sep-21,0.039,0.04,0.001521,0.0016
11:11:06,30-Sep-21,0.039,0.04,0.001521,0.0016
11:11:06,30-Sep-21,0.039,0.04,0.001521,0.0016
11:11:06,30-Sep-21,0.044,0.04,0.001936,0.0016
11:11:06,30-Sep-21,0.044,0.04,0.001936,0.0016
11:11:06,30-Sep-21,0.044,0.04,0.001936,0.0016
11:11:06,30-Sep-21,0.044,0.04,0.001936,0.0016
11:11:06,30-Sep-21,0.044,0.04,0.001936,0.0016
11:11:06,30-Sep-21,0.044,0.04,0.001936,0.0016
11:11:06,30-Sep-21,0.039,0.04,0.001521,0.0016
11:11:06,30-Sep-21,0.039,0.04,0.001521,0.0016
11:11:06,30-Sep-21,0.039,0.04,0.001521,0.0016
11:11:06,30-Sep-21,0.039,0.04,0.001521,0.0016
11:11:06,30-Sep-21,0.039,0.04,0.001521,0.0016
11:11:06,30-Sep-21,0.039,0.04,0.001521,0.0016
11:11:06,30-Sep-21,0.039,0.04,0.001521,0.0016
11:11:06,30-Sep-21,0.039,0.04,0.001521,0.0016
11:11:06,30-Sep-21,0.039,0.04,0.001521,0.0016
11:11:06,30-Sep-21,0.039,0.04,0.001521,0.0016
11:11:06,30-Sep-21,0.039,0.039,0.001521,0.001521
11:11:06,30-Sep-21,0.039,0.039,0.001521,0.001521
11:11:06,30-Sep-21,0.039,0.039,0.001521,0.001521
11:11:06,30-Sep-21,0.039,0.039,0.001521,0.001521
11:11:06,30-Sep-21,0.039,0.039,0.001521,0.001521
11:11:06,30-Sep-21,0.039,0.039,0.001521,0.001521
11:11:06,30-Sep-21,0.039,0.039,0.001521,0.001521
11:11:06,30-Sep-21,0.039,0.039,0.001521,0.001521
11:11:06,30-Sep-21,0.039,0.039,0.001521,0.001521
11:11:06,30-Sep-21,0.039,0.039,0.001521,0.001521
11:11:06,30-Sep-21,0.039,0.039,0.001521,0.001521
11:11:06,30-Sep-21,0.039,0.039,0.001521,0.001521
11:11:06,30-Sep-21,0.039,0.039,0.001521,0.001521
11:11:06,30-Sep-21,0.039,0.039,0.001521,0.001521
11:11:06,30-Sep-21,0.039,0.039,0.001521,0.001521
11:11:06,30-Sep-21,0.039,0.039,0.001521,0.001521
11:11:06,30-Sep-21,0.039,0.039,0.001521,0.001521
11:11:06,30-Sep-21,0.034,0.039,0.001156,0.001521
11:11:06,30-Sep-21,0.034,0.039,0.001156,0.001521
11:11:06,30-Sep-21,0.039,0.039,0.001521,0.001521
11:11:06,30-Sep-21,0.039,0.039,0.001521,0.001521
11:11:06,30-Sep-21,0.039,0.039,0.001521,0.001521
11:11:06,30-Sep-21,0.039,0.039,0.001521,0.001521
11:11:07,30-Sep-21,0.039,0.039,0.001521,0.001521
11:11:07,30-Sep-21,0.039,0.039,0.001521,0.001521
11:11:07,30-Sep-21,0.039,0.039,0.001521,0.001521
11:11:07,30-Sep-21,0.039,0.039,0.001521,0.001521
11:11:07,30-Sep-21,0.039,0.039,0.001521,0.001521
11:11:07,30-Sep-21,0.039,0.039,0.001521,0.001521
11:11:07,30-Sep-21,0.039,0.039,0.001521,0.001521
11:11:07,30-Sep-21,0.039,0.039,0.001521,0.001521
11:11:07,30-Sep-21,0.039,0.039,0.001521,0.001521
11:11:07,30-Sep-21,0.039,0.039,0.001521,0.001521
11:11:07,30-Sep-21,0.039,0.039,0.001521,0.001521
11:11:07,30-Sep-21,0.039,0.039,0.001521,0.001521
11:11:07,30-Sep-21,0.039,0.039,0.001521,0.001521
11:11:07,30-Sep-21,0.039,0.039,0.001521,0.001521
11:11:07,30-Sep-21,0.039,0.039,0.001521,0.001521
11:11:07,30-Sep-21,0.039,0.039,0.001521,0.001521
11:11:07,30-Sep-21,0.039,0.039,0.001521,0.001521
11:11:07,30-Sep-21,0.039,0.039,0.001521,0.001521
11:11:07,30-Sep-21,0.039,0.039,0.001521,0.001521
11:11:07,30-Sep-21,0.039,0.039,0.001521,0.001521
11:11:07,30-Sep-21,0.039,0.039,0.001521,0.001521
11:11:07,30-Sep-21,0.039,0.039,0.001521,0.001521
11:11:07,30-Sep-21,0.039,0.039,0.001521,0.001521
11:11:07,30-Sep-21,0.039,0.039,0.001521,0.001521
11:11:07,30-Sep-21,0.039,0.039,0.001521,0.001521
11:11:07,30-Sep-21,0.039,0.039,0.001521,0.001521
11:11:07,30-Sep-21,0.039,0.039,0.001521,0.001521
11:11:07,30-Sep-21,0.039,0.039,0.001521,0.001521
11:11:07,30-Sep-21,0.039,0.039,0.001521,0.001521
11:11:07,30-Sep-21,0.039,0.039,0.001521,0.001521
11:11:07,30-Sep-21,0.039,0.039,0.001521,0.001521
11:11:07,30-Sep-21,0.039,0.039,0.001521,0.001521
11:11:07,30-Sep-21,0.039,0.039,0.001521,0.001521
11:11:07,30-Sep-21,0.039,0.039,0.001521,0.001521
11:11:07,30-Sep-21,0.039,0.039,0.001521,0.001521
11:11:07,30-Sep-21,0.039,0.039,0.001521,0.001521
11:11:07,30-Sep-21,0.039,0.039,0.001521,0.001521
11:11:07,30-Sep-21,0.034,0.039,0.001156,0.001521
11:11:07,30-Sep-21,0.034,0.038,0.001156,0.001444
11:11:07,30-Sep-21,0.034,0.038,0.001156,0.001444
11:11:07,30-Sep-21,0.039,0.038,0.001521,0.001444
11:11:07,30-Sep-21,0.039,0.038,0.001521,0.001444
11:11:07,30-Sep-21,0.039,0.038,0.001521,0.001444
11:11:07,30-Sep-21,0.039,0.038,0.001521,0.001444
11:11:07,30-Sep-21,0.039,0.038,0.001521,0.001444
11:11:07,30-Sep-21,0.039,0.038,0.001521,0.001444
11:11:07,30-Sep-21,0.039,0.038,0.001521,0.001444
11:11:07,30-Sep-21,0.039,0.038,0.001521,0.001444
11:11:07,30-Sep-21,0.039,0.038,0.001521,0.001444
11:11:07,30-Sep-21,0.044,0.038,0.001936,0.001444
11:11:07,30-Sep-21,0.039,0.038,0.001521,0.001444
11:11:07,30-Sep-21,0.039,0.038,0.001521,0.001444
11:11:07,30-Sep-21,0.039,0.039,0.001521,0.001521
11:11:07,30-Sep-21,0.039,0.039,0.001521,0.001521
11:11:07,30-Sep-21,0.039,0.039,0.001521,0.001521
11:11:07,30-Sep-21,0.039,0.039,0.001521,0.001521
11:11:07,30-Sep-21,0.039,0.039,0.001521,0.001521
11:11:07,30-Sep-21,0.039,0.039,0.001521,0.001521
11:11:07,30-Sep-21,0.039,0.039,0.001521,0.001521
11:11:07,30-Sep-21,0.039,0.039,0.001521,0.001521
11:11:07,30-Sep-21,0.039,0.039,0.001521,0.001521
11:11:07,30-Sep-21,0.034,0.039,0.001156,0.001521
11:11:07,30-Sep-21,0.034,0.039,0.001156,0.001521
11:11:07,30-Sep-21,0.039,0.039,0.001521,0.001521
11:11:07,30-Sep-21,0.039,0.039,0.001521,0.001521
11:11:07,30-Sep-21,0.039,0.039,0.001521,0.001521
11:11:07,30-Sep-21,0.039,0.039,0.001521,0.001521
11:11:07,30-Sep-21,0.039,0.039,0.001521,0.001521
11:11:07,30-Sep-21,0.039,0.039,0.001521,0.001521
11:11:07,30-Sep-21,0.039,0.039,0.001521,0.001521
11:11:07,30-Sep-21,0.039,0.039,0.001521,0.001521
11:11:07,30-Sep-21,0.039,0.039,0.001521,0.001521
11:11:07,30-Sep-21,0.039,0.039,0.001521,0.001521
11:11:07,30-Sep-21,0.039,0.04,0.001521,0.0016
11:11:07,30-Sep-21,0.039,0.04,0.001521,0.0016
11:11:07,30-Sep-21,0.039,0.04,0.001521,0.0016
11:11:07,30-Sep-21,0.039,0.04,0.001521,0.0016
11:11:07,30-Sep-21,0.039,0.04,0.001521,0.0016
11:11:07,30-Sep-21,0.039,0.04,0.001521,0.0016
11:11:07,30-Sep-21,0.039,0.04,0.001521,0.0016
11:11:07,30-Sep-21,0.039,0.04,0.001521,0.0016
11:11:07,30-Sep-21,0.039,0.04,0.001521,0.0016
11:11:07,30-Sep-21,0.039,0.04,0.001521,0.0016
11:11:07,30-Sep-21,0.039,0.04,0.001521,0.0016
11:11:07,30-Sep-21,0.044,0.04,0.001936,0.0016
11:11:07,30-Sep-21,0.044,0.04,0.001936,0.0016
11:11:07,30-Sep-21,0.044,0.04,0.001936,0.0016
11:11:07,30-Sep-21,0.044,0.04,0.001936,0.0016
11:11:07,30-Sep-21,0.044,0.04,0.001936,0.0016
11:11:07,30-Sep-21,0.044,0.04,0.001936,0.0016
11:11:07,30-Sep-21,0.044,0.04,0.001936,0.0016
11:11:07,30-Sep-21,0.039,0.04,0.001521,0.0016
11:11:07,30-Sep-21,0.039,0.04,0.001521,0.0016
11:11:07,30-Sep-21,0.039,0.04,0.001521,0.0016
11:11:07,30-Sep-21,0.039,0.04,0.001521,0.0016
11:11:07,30-Sep-21,0.039,0.04,0.001521,0.0016
11:11:07,30-Sep-21,0.039,0.04,0.001521,0.0016
11:11:07,30-Sep-21,0.039,0.04,0.001521,0.0016
11:11:07,30-Sep-21,0.039,0.04,0.001521,0.0016
11:11:07,30-Sep-21,0.039,0.04,0.001521,0.0016
11:11:07,30-Sep-21,0.039,0.04,0.001521,0.0016
11:11:07,30-Sep-21,0.039,0.04,0.001521,0.0016
11:11:07,30-Sep-21,0.039,0.039,0.001521,0.001521
11:11:07,30-Sep-21,0.039,0.039,0.001521,0.001521
11:11:08,30-Sep-21,0.039,0.039,0.001521,0.001521
11:11:08,30-Sep-21,0.039,0.039,0.001521,0.001521
11:11:08,30-Sep-21,0.039,0.039,0.001521,0.001521
11:11:08,30-Sep-21,0.039,0.039,0.001521,0.001521
11:11:08,30-Sep-21,0.039,0.039,0.001521,0.001521
11:11:08,30-Sep-21,0.039,0.039,0.001521,0.001521
11:11:08,30-Sep-21,0.039,0.039,0.001521,0.001521
11:11:08,30-Sep-21,0.039,0.039,0.001521,0.001521
11:11:08,30-Sep-21,0.039,0.039,0.001521,0.001521
11:11:08,30-Sep-21,0.039,0.039,0.001521,0.001521
11:11:08,30-Sep-21,0.034,0.039,0.001156,0.001521
11:11:08,30-Sep-21,0.034,0.039,0.001156,0.001521
11:11:08,30-Sep-21,0.039,0.039,0.001521,0.001521
11:11:08,30-Sep-21,0.039,0.039,0.001521,0.001521
11:11:08,30-Sep-21,0.039,0.039,0.001521,0.001521
11:11:08,30-Sep-21,0.039,0.039,0.001521,0.001521
11:11:08,30-Sep-21,0.039,0.039,0.001521,0.001521
11:11:08,30-Sep-21,0.039,0.039,0.001521,0.001521
11:11:08,30-Sep-21,0.039,0.039,0.001521,0.001521
11:11:08,30-Sep-21,0.039,0.039,0.001521,0.001521
11:11:08,30-Sep-21,0.039,0.039,0.001521,0.001521
11:11:08,30-Sep-21,0.039,0.039,0.001521,0.001521
11:11:08,30-Sep-21,0.039,0.039,0.001521,0.001521
11:11:08,30-Sep-21,0.039,0.039,0.001521,0.001521
11:11:08,30-Sep-21,0.039,0.039,0.001521,0.001521
11:11:08,30-Sep-21,0.039,0.039,0.001521,0.001521
11:11:08,30-Sep-21,0.039,0.039,0.001521,0.001521
11:11:08,30-Sep-21,0.039,0.039,0.001521,0.001521
11:11:08,30-Sep-21,0.039,0.039,0.001521,0.001521
11:11:08,30-Sep-21,0.039,0.039,0.001521,0.001521
11:11:08,30-Sep-21,0.039,0.039,0.001521,0.001521
11:11:08,30-Sep-21,0.039,0.039,0.001521,0.001521
11:11:08,30-Sep-21,0.039,0.039,0.001521,0.001521
11:11:08,30-Sep-21,0.039,0.039,0.001521,0.001521
11:11:08,30-Sep-21,0.039,0.039,0.001521,0.001521
11:11:08,30-Sep-21,0.039,0.039,0.001521,0.001521
11:11:08,30-Sep-21,0.039,0.039,0.001521,0.001521
11:11:08,30-Sep-21,0.039,0.039,0.001521,0.001521
11:11:08,30-Sep-21,0.034,0.039,0.001156,0.001521
11:11:08,30-Sep-21,0.039,0.039,0.001521,0.001521
11:11:08,30-Sep-21,0.039,0.039,0.001521,0.001521
11:11:08,30-Sep-21,0.039,0.039,0.001521,0.001521
11:11:08,30-Sep-21,0.039,0.039,0.001521,0.001521
11:11:08,30-Sep-21,0.039,0.039,0.001521,0.001521
11:11:08,30-Sep-21,0.039,0.039,0.001521,0.001521
11:11:08,30-Sep-21,0.039,0.039,0.001521,0.001521
11:11:08,30-Sep-21,0.039,0.039,0.001521,0.001521
11:11:08,30-Sep-21,0.039,0.039,0.001521,0.001521
11:11:08,30-Sep-21,0.039,0.039,0.001521,0.001521
11:11:08,30-Sep-21,0.039,0.039,0.001521,0.001521
11:11:08,30-Sep-21,0.039,0.039,0.001521,0.001521
11:11:08,30-Sep-21,0.039,0.039,0.001521,0.001521
11:11:08,30-Sep-21,0.039,0.039,0.001521,0.001521
11:11:08,30-Sep-21,0.039,0.039,0.001521,0.001521
11:11:08,30-Sep-21,0.039,0.039,0.001521,0.001521
11:11:08,30-Sep-21,0.039,0.039,0.001521,0.001521
11:11:08,30-Sep-21,0.039,0.039,0.001521,0.001521
11:11:08,30-Sep-21,0.039,0.039,0.001521,0.001521
11:11:08,30-Sep-21,0.039,0.039,0.001521,0.001521
11:11:08,30-Sep-21,0.039,0.039,0.001521,0.001521
11:11:08,30-Sep-21,0.039,0.039,0.001521,0.001521
11:11:08,30-Sep-21,0.039,0.039,0.001521,0.001521
11:11:08,30-Sep-21,0.039,0.039,0.001521,0.001521
11:11:08,30-Sep-21,0.039,0.039,0.001521,0.001521
11:11:08,30-Sep-21,0.039,0.039,0.001521,0.001521
11:11:08,30-Sep-21,0.039,0.039,0.001521,0.001521
11:11:08,30-Sep-21,0.039,0.039,0.001521,0.001521
11:11:08,30-Sep-21,0.039,0.039,0.001521,0.001521
11:11:08,30-Sep-21,0.039,0.039,0.001521,0.001521
11:11:08,30-Sep-21,0.039,0.039,0.001521,0.001521
11:11:08,30-Sep-21,0.039,0.039,0.001521,0.001521
11:11:08,30-Sep-21,0.039,0.039,0.001521,0.001521
11:11:08,30-Sep-21,0.039,0.039,0.001521,0.001521
11:11:08,30-Sep-21,0.039,0.039,0.001521,0.001521
11:11:08,30-Sep-21,0.039,0.039,0.001521,0.001521
11:11:08,30-Sep-21,0.039,0.039,0.001521,0.001521
11:11:08,30-Sep-21,0.039,0.039,0.001521,0.001521
11:11:08,30-Sep-21,0.039,0.039,0.001521,0.001521
11:11:08,30-Sep-21,0.039,0.039,0.001521,0.001521
11:11:08,30-Sep-21,0.039,0.039,0.001521,0.001521
11:11:08,30-Sep-21,0.039,0.039,0.001521,0.001521
11:11:08,30-Sep-21,0.034,0.039,0.001156,0.001521
11:11:08,30-Sep-21,0.034,0.039,0.001156,0.001521
11:11:08,30-Sep-21,0.039,0.039,0.001521,0.001521
11:11:08,30-Sep-21,0.039,0.039,0.001521,0.001521
11:11:08,30-Sep-21,0.039,0.039,0.001521,0.001521
11:11:08,30-Sep-21,0.039,0.039,0.001521,0.001521
11:11:08,30-Sep-21,0.039,0.039,0.001521,0.001521
11:11:08,30-Sep-21,0.039,0.039,0.001521,0.001521
11:11:08,30-Sep-21,0.039,0.039,0.001521,0.001521
11:11:08,30-Sep-21,0.039,0.039,0.001521,0.001521
11:11:08,30-Sep-21,0.039,0.039,0.001521,0.001521
11:11:08,30-Sep-21,0.039,0.039,0.001521,0.001521
11:11:08,30-Sep-21,0.039,0.039,0.001521,0.001521
11:11:08,30-Sep-21,0.039,0.039,0.001521,0.001521
11:11:09,30-Sep-21,0.039,0.039,0.001521,0.001521
11:11:09,30-Sep-21,0.039,0.039,0.001521,0.001521
11:11:09,30-Sep-21,0.039,0.039,0.001521,0.001521
11:11:09,30-Sep-21,0.039,0.039,0.001521,0.001521
11:11:09,30-Sep-21,0.039,0.039,0.001521,0.001521
11:11:09,30-Sep-21,0.039,0.038,0.001521,0.001444
11:11:09,30-Sep-21,0.039,0.038,0.001521,0.001444
11:11:09,30-Sep-21,0.039,0.038,0.001521,0.001444
11:11:09,30-Sep-21,0.039,0.038,0.001521,0.001444
11:11:09,30-Sep-21,0.034,0.038,0.001156,0.001444
11:11:09,30-Sep-21,0.034,0.038,0.001156,0.001444
11:11:09,30-Sep-21,0.039,0.038,0.001521,0.001444
11:11:09,30-Sep-21,0.039,0.038,0.001521,0.001444
11:11:09,30-Sep-21,0.039,0.038,0.001521,0.001444
11:11:09,30-Sep-21,0.039,0.038,0.001521,0.001444
11:11:09,30-Sep-21,0.039,0.038,0.001521,0.001444
11:11:09,30-Sep-21,0.039,0.038,0.001521,0.001444
11:11:09,30-Sep-21,0.039,0.038,0.001521,0.001444
11:11:09,30-Sep-21,0.039,0.038,0.001521,0.001444
11:11:09,30-Sep-21,0.039,0.038,0.001521,0.001444
11:11:09,30-Sep-21,0.039,0.038,0.001521,0.001444
11:11:09,30-Sep-21,0.039,0.038,0.001521,0.001444
11:11:09,30-Sep-21,0.039,0.038,0.001521,0.001444
11:11:09,30-Sep-21,0.039,0.038,0.001521,0.001444
11:11:09,30-Sep-21,0.039,0.038,0.001521,0.001444
11:11:09,30-Sep-21,0.039,0.038,0.001521,0.001444
11:11:09,30-Sep-21,0.039,0.037,0.001521,0.001369
11:11:09,30-Sep-21,0.039,0.037,0.001521,0.001369
11:11:09,30-Sep-21,0.039,0.037,0.001521,0.001369
11:11:09,30-Sep-21,0.034,0.037,0.001156,0.001369
11:11:09,30-Sep-21,0.034,0.037,0.001156,0.001369
11:11:09,30-Sep-21,0.034,0.037,0.001156,0.001369
11:11:09,30-Sep-21,0.034,0.037,0.001156,0.001369
11:11:09,30-Sep-21,0.034,0.037,0.001156,0.001369
11:11:09,30-Sep-21,0.034,0.037,0.001156,0.001369
11:11:09,30-Sep-21,0.034,0.037,0.001156,0.001369
11:11:09,30-Sep-21,0.034,0.037,0.001156,0.001369
11:11:09,30-Sep-21,0.034,0.037,0.001156,0.001369
11:11:09,30-Sep-21,0.039,0.038,0.001521,0.001444
11:11:09,30-Sep-21,0.039,0.038,0.001521,0.001444
11:11:09,30-Sep-21,0.039,0.038,0.001521,0.001444
11:11:09,30-Sep-21,0.039,0.038,0.001521,0.001444
11:11:09,30-Sep-21,0.039,0.038,0.001521,0.001444
11:11:09,30-Sep-21,0.039,0.038,0.001521,0.001444
11:11:09,30-Sep-21,0.039,0.038,0.001521,0.001444
11:11:09,30-Sep-21,0.039,0.038,0.001521,0.001444
11:11:09,30-Sep-21,0.039,0.038,0.001521,0.001444
11:11:09,30-Sep-21,0.039,0.038,0.001521,0.001444
11:11:09,30-Sep-21,0.039,0.038,0.001521,0.001444
11:11:09,30-Sep-21,0.039,0.038,0.001521,0.001444
11:11:09,30-Sep-21,0.039,0.038,0.001521,0.001444
11:11:09,30-Sep-21,0.039,0.038,0.001521,0.001444
11:11:09,30-Sep-21,0.039,0.038,0.001521,0.001444
11:11:09,30-Sep-21,0.039,0.039,0.001521,0.001521
11:11:09,30-Sep-21,0.039,0.039,0.001521,0.001521
11:11:09,30-Sep-21,0.039,0.039,0.001521,0.001521
11:11:09,30-Sep-21,0.039,0.039,0.001521,0.001521
11:11:09,30-Sep-21,0.039,0.039,0.001521,0.001521
11:11:09,30-Sep-21,0.039,0.039,0.001521,0.001521
11:11:09,30-Sep-21,0.039,0.039,0.001521,0.001521
11:11:09,30-Sep-21,0.039,0.039,0.001521,0.001521
11:11:09,30-Sep-21,0.039,0.039,0.001521,0.001521
11:11:09,30-Sep-21,0.039,0.039,0.001521,0.001521
11:11:09,30-Sep-21,0.039,0.039,0.001521,0.001521
11:11:09,30-Sep-21,0.039,0.039,0.001521,0.001521
11:11:09,30-Sep-21,0.039,0.039,0.001521,0.001521
11:11:09,30-Sep-21,0.039,0.039,0.001521,0.001521
11:11:09,30-Sep-21,0.039,0.039,0.001521,0.001521
11:11:09,30-Sep-21,0.039,0.039,0.001521,0.001521
11:11:09,30-Sep-21,0.039,0.039,0.001521,0.001521
11:11:09,30-Sep-21,0.039,0.04,0.001521,0.0016
11:11:09,30-Sep-21,0.039,0.04,0.001521,0.0016
11:11:09,30-Sep-21,0.039,0.04,0.001521,0.0016
11:11:09,30-Sep-21,0.039,0.04,0.001521,0.0016
11:11:09,30-Sep-21,0.039,0.04,0.001521,0.0016
11:11:09,30-Sep-21,0.039,0.04,0.001521,0.0016
11:11:09,30-Sep-21,0.039,0.04,0.001521,0.0016
11:11:09,30-Sep-21,0.039,0.04,0.001521,0.0016
11:11:09,30-Sep-21,0.039,0.04,0.001521,0.0016
11:11:09,30-Sep-21,0.044,0.04,0.001936,0.0016
11:11:09,30-Sep-21,0.039,0.04,0.001521,0.0016
11:11:09,30-Sep-21,0.044,0.04,0.001936,0.0016
11:11:09,30-Sep-21,0.044,0.04,0.001936,0.0016
11:11:09,30-Sep-21,0.044,0.04,0.001936,0.0016
11:11:09,30-Sep-21,0.039,0.04,0.001521,0.0016
11:11:09,30-Sep-21,0.039,0.04,0.001521,0.0016
11:11:09,30-Sep-21,0.039,0.04,0.001521,0.0016
11:11:09,30-Sep-21,0.039,0.04,0.001521,0.0016
11:11:09,30-Sep-21,0.039,0.04,0.001521,0.0016
11:11:09,30-Sep-21,0.039,0.04,0.001521,0.0016
11:11:09,30-Sep-21,0.039,0.04,0.001521,0.0016
11:11:09,30-Sep-21,0.044,0.04,0.001936,0.0016
11:11:09,30-Sep-21,0.039,0.04,0.001521,0.0016
11:11:09,30-Sep-21,0.039,0.04,0.001521,0.0016
11:11:09,30-Sep-21,0.039,0.04,0.001521,0.0016
11:11:10,30-Sep-21,0.039,0.04,0.001521,0.0016
11:11:10,30-Sep-21,0.039,0.04,0.001521,0.0016
11:11:10,30-Sep-21,0.039,0.041,0.001521,0.001681
11:11:10,30-Sep-21,0.039,0.041,0.001521,0.001681
11:11:10,30-Sep-21,0.039,0.041,0.001521,0.001681
11:11:10,30-Sep-21,0.039,0.041,0.001521,0.001681
11:11:10,30-Sep-21,0.039,0.041,0.001521,0.001681
11:11:10,30-Sep-21,0.039,0.041,0.001521,0.001681
11:11:10,30-Sep-21,0.039,0.041,0.001521,0.001681
11:11:10,30-Sep-21,0.044,0.041,0.001936,0.001681
11:11:10,30-Sep-21,0.044,0.041,0.001936,0.001681
11:11:10,30-Sep-21,0.044,0.041,0.001936,0.001681
11:11:10,30-Sep-21,0.044,0.041,0.001936,0.001681
11:11:10,30-Sep-21,0.044,0.041,0.001936,0.001681
11:11:10,30-Sep-21,0.044,0.041,0.001936,0.001681
11:11:10,30-Sep-21,0.044,0.041,0.001936,0.001681
11:11:10,30-Sep-21,0.044,0.041,0.001936,0.001681
11:11:10,30-Sep-21,0.044,0.041,0.001936,0.001681
11:11:10,30-Sep-21,0.039,0.041,0.001521,0.001681
11:11:10,30-Sep-21,0.039,0.041,0.001521,0.001681
11:11:10,30-Sep-21,0.039,0.041,0.001521,0.001681
11:11:10,30-Sep-21,0.039,0.041,0.001521,0.001681
11:11:10,30-Sep-21,0.039,0.041,0.001521,0.001681
11:11:10,30-Sep-21,0.039,0.041,0.001521,0.001681
11:11:10,30-Sep-21,0.039,0.041,0.001521,0.001681
11:11:10,30-Sep-21,0.039,0.041,0.001521,0.001681
11:11:10,30-Sep-21,0.039,0.041,0.001521,0.001681
11:11:10,30-Sep-21,0.039,0.041,0.001521,0.001681
11:11:10,30-Sep-21,0.039,0.041,0.001521,0.001681
11:11:10,30-Sep-21,0.039,0.041,0.001521,0.001681
11:11:10,30-Sep-21,0.039,0.041,0.001521,0.001681
11:11:10,30-Sep-21,0.044,0.041,0.001936,0.001681
11:11:10,30-Sep-21,0.044,0.041,0.001936,0.001681
11:11:10,30-Sep-21,0.044,0.041,0.001936,0.001681
11:11:10,30-Sep-21,0.044,0.041,0.001936,0.001681
11:11:10,30-Sep-21,0.044,0.041,0.001936,0.001681
11:11:10,30-Sep-21,0.044,0.041,0.001936,0.001681
11:11:10,30-Sep-21,0.044,0.041,0.001936,0.001681
11:11:10,30-Sep-21,0.044,0.041,0.001936,0.001681
11:11:10,30-Sep-21,0.044,0.041,0.001936,0.001681
11:11:10,30-Sep-21,0.039,0.041,0.001521,0.001681
11:11:10,30-Sep-21,0.039,0.041,0.001521,0.001681
11:11:10,30-Sep-21,0.039,0.041,0.001521,0.001681
11:11:10,30-Sep-21,0.039,0.041,0.001521,0.001681
11:11:10,30-Sep-21,0.039,0.041,0.001521,0.001681
11:11:10,30-Sep-21,0.039,0.041,0.001521,0.001681
11:11:10,30-Sep-21,0.039,0.041,0.001521,0.001681
11:11:10,30-Sep-21,0.039,0.041,0.001521,0.001681
11:11:10,30-Sep-21,0.039,0.041,0.001521,0.001681
11:11:10,30-Sep-21,0.039,0.04,0.001521,0.0016
11:11:10,30-Sep-21,0.039,0.04,0.001521,0.0016
11:11:10,30-Sep-21,0.039,0.04,0.001521,0.0016
11:11:10,30-Sep-21,0.039,0.04,0.001521,0.0016
11:11:10,30-Sep-21,0.039,0.04,0.001521,0.0016
11:11:10,30-Sep-21,0.039,0.04,0.001521,0.0016
11:11:10,30-Sep-21,0.044,0.04,0.001936,0.0016
11:11:10,30-Sep-21,0.044,0.04,0.001936,0.0016
11:11:10,30-Sep-21,0.044,0.04,0.001936,0.0016
11:11:10,30-Sep-21,0.044,0.04,0.001936,0.0016
11:11:10,30-Sep-21,0.044,0.04,0.001936,0.0016
11:11:10,30-Sep-21,0.039,0.04,0.001521,0.0016
11:11:10,30-Sep-21,0.039,0.04,0.001521,0.0016
11:11:10,30-Sep-21,0.039,0.04,0.001521,0.0016
11:11:10,30-Sep-21,0.039,0.04,0.001521,0.0016
11:11:10,30-Sep-21,0.039,0.04,0.001521,0.0016
11:11:10,30-Sep-21,0.039,0.04,0.001521,0.0016
11:11:10,30-Sep-21,0.039,0.039,0.001521,0.001521
11:11:10,30-Sep-21,0.039,0.039,0.001521,0.001521
11:11:10,30-Sep-21,0.039,0.039,0.001521,0.001521
11:11:10,30-Sep-21,0.039,0.039,0.001521,0.001521
11:11:10,30-Sep-21,0.039,0.039,0.001521,0.001521
11:11:10,30-Sep-21,0.039,0.039,0.001521,0.001521
11:11:10,30-Sep-21,0.039,0.039,0.001521,0.001521
11:11:10,30-Sep-21,0.039,0.039,0.001521,0.001521
11:11:10,30-Sep-21,0.039,0.039,0.001521,0.001521
11:11:10,30-Sep-21,0.039,0.039,0.001521,0.001521
11:11:10,30-Sep-21,0.039,0.039,0.001521,0.001521
11:11:10,30-Sep-21,0.039,0.039,0.001521,0.001521
11:11:10,30-Sep-21,0.039,0.039,0.001521,0.001521
11:11:10,30-Sep-21,0.039,0.039,0.001521,0.001521
11:11:10,30-Sep-21,0.039,0.039,0.001521,0.001521
11:11:10,30-Sep-21,0.039,0.039,0.001521,0.001521
11:11:10,30-Sep-21,0.039,0.039,0.001521,0.001521
11:11:10,30-Sep-21,0.039,0.04,0.001521,0.0016
11:11:10,30-Sep-21,0.039,0.04,0.001521,0.0016
11:11:10,30-Sep-21,0.039,0.04,0.001521,0.0016
11:11:10,30-Sep-21,0.039,0.04,0.001521,0.0016
11:11:10,30-Sep-21,0.039,0.04,0.001521,0.0016
11:11:10,30-Sep-21,0.039,0.04,0.001521,0.0016
11:11:10,30-Sep-21,0.039,0.04,0.001521,0.0016
11:11:10,30-Sep-21,0.039,0.04,0.001521,0.0016
11:11:10,30-Sep-21,0.039,0.04,0.001521,0.0016
11:11:10,30-Sep-21,0.039,0.04,0.001521,0.0016
11:11:10,30-Sep-21,0.039,0.04,0.001521,0.0016
11:11:10,30-Sep-21,0.039,0.04,0.001521,0.0016
11:11:10,30-Sep-21,0.039,0.041,0.001521,0.001681
11:11:10,30-Sep-21,0.039,0.041,0.001521,0.001681
11:11:10,30-Sep-21,0.039,0.041,0.001521,0.001681
11:11:10,30-Sep-21,0.044,0.041,0.001936,0.001681
11:11:10,30-Sep-21,0.044,0.041,0.001936,0.001681
11:11:10,30-Sep-21,0.044,0.041,0.001936,0.001681
11:11:10,30-Sep-21,0.044,0.041,0.001936,0.001681
11:11:10,30-Sep-21,0.044,0.041,0.001936,0.001681
11:11:10,30-Sep-21,0.044,0.041,0.001936,0.001681
11:11:10,30-Sep-21,0.044,0.041,0.001936,0.001681
11:11:10,30-Sep-21,0.044,0.041,0.001936,0.001681
11:11:10,30-Sep-21,0.044,0.041,0.001936,0.001681
11:11:10,30-Sep-21,0.044,0.041,0.001936,0.001681
11:11:10,30-Sep-21,0.044,0.041,0.001936,0.001681
11:11:10,30-Sep-21,0.044,0.041,0.001936,0.001681
11:11:10,30-Sep-21,0.039,0.041,0.001521,0.001681
11:11:10,30-Sep-21,0.039,0.041,0.001521,0.001681
11:11:10,30-Sep-21,0.039,0.041,0.001521,0.001681
11:11:11,30-Sep-21,0.039,0.041,0.001521,0.001681
11:11:11,30-Sep-21,0.039,0.041,0.001521,0.001681
11:11:11,30-Sep-21,0.039,0.041,0.001521,0.001681
11:11:11,30-Sep-21,0.039,0.041,0.001521,0.001681
11:11:11,30-Sep-21,0.039,0.041,0.001521,0.001681
11:11:11,30-Sep-21,0.039,0.041,0.001521,0.001681
11:11:11,30-Sep-21,0.039,0.041,0.001521,0.001681
11:11:11,30-Sep-21,0.039,0.041,0.001521,0.001681
11:11:11,30-Sep-21,0.039,0.041,0.001521,0.001681
11:11:11,30-Sep-21,0.039,0.041,0.001521,0.001681
11:11:11,30-Sep-21,0.039,0.04,0.001521,0.0016
11:11:11,30-Sep-21,0.039,0.04,0.001521,0.0016
11:11:11,30-Sep-21,0.039,0.04,0.001521,0.0016
11:11:11,30-Sep-21,0.039,0.04,0.001521,0.0016
11:11:11,30-Sep-21,0.039,0.04,0.001521,0.0016
11:11:11,30-Sep-21,0.039,0.04,0.001521,0.0016
11:11:11,30-Sep-21,0.039,0.04,0.001521,0.0016
11:11:11,30-Sep-21,0.039,0.04,0.001521,0.0016
11:11:11,30-Sep-21,0.044,0.04,0.001936,0.0016
11:11:11,30-Sep-21,0.044,0.04,0.001936,0.0016
11:11:11,30-Sep-21,0.044,0.04,0.001936,0.0016
11:11:11,30-Sep-21,0.044,0.04,0.001936,0.0016
11:11:11,30-Sep-21,0.044,0.04,0.001936,0.0016
11:11:11,30-Sep-21,0.044,0.04,0.001936,0.0016
11:11:11,30-Sep-21,0.044,0.04,0.001936,0.0016
11:11:11,30-Sep-21,0.039,0.04,0.001521,0.0016
11:11:11,30-Sep-21,0.039,0.04,0.001521,0.0016
11:11:11,30-Sep-21,0.039,0.04,0.001521,0.0016
11:11:11,30-Sep-21,0.039,0.04,0.001521,0.0016
11:11:11,30-Sep-21,0.039,0.04,0.001521,0.0016
11:11:11,30-Sep-21,0.039,0.04,0.001521,0.0016
11:11:11,30-Sep-21,0.039,0.04,0.001521,0.0016
11:11:11,30-Sep-21,0.039,0.04,0.001521,0.0016
11:11:11,30-Sep-21,0.039,0.04,0.001521,0.0016
11:11:11,30-Sep-21,0.039,0.04,0.001521,0.0016
11:11:11,30-Sep-21,0.039,0.04,0.001521,0.0016
11:11:11,30-Sep-21,0.039,0.04,0.001521,0.0016
11:11:11,30-Sep-21,0.039,0.04,0.001521,0.0016
11:11:11,30-Sep-21,0.039,0.04,0.001521,0.0016
11:11:11,30-Sep-21,0.039,0.04,0.001521,0.0016
11:11:11,30-Sep-21,0.039,0.04,0.001521,0.0016
11:11:11,30-Sep-21,0.039,0.04,0.001521,0.0016
11:11:11,30-Sep-21,0.039,0.04,0.001521,0.0016
11:11:11,30-Sep-21,0.039,0.04,0.001521,0.0016
11:11:11,30-Sep-21,0.039,0.04,0.001521,0.0016
11:11:11,30-Sep-21,0.039,0.04,0.001521,0.0016
11:11:11,30-Sep-21,0.044,0.04,0.001936,0.0016
11:11:11,30-Sep-21,0.044,0.04,0.001936,0.0016
11:11:11,30-Sep-21,0.039,0.04,0.001521,0.0016
11:11:11,30-Sep-21,0.039,0.04,0.001521,0.0016
11:11:11,30-Sep-21,0.039,0.04,0.001521,0.0016
11:11:11,30-Sep-21,0.044,0.04,0.001936,0.0016
11:11:11,30-Sep-21,0.044,0.04,0.001936,0.0016
11:11:11,30-Sep-21,0.044,0.04,0.001936,0.0016
11:11:11,30-Sep-21,0.044,0.04,0.001936,0.0016
11:11:11,30-Sep-21,0.039,0.04,0.001521,0.0016
11:11:11,30-Sep-21,0.039,0.04,0.001521,0.0016
11:11:11,30-Sep-21,0.039,0.04,0.001521,0.0016
11:11:11,30-Sep-21,0.039,0.04,0.001521,0.0016
11:11:11,30-Sep-21,0.039,0.04,0.001521,0.0016
11:11:11,30-Sep-21,0.039,0.04,0.001521,0.0016
11:11:11,30-Sep-21,0.039,0.04,0.001521,0.0016
11:11:11,30-Sep-21,0.039,0.04,0.001521,0.0016
11:11:11,30-Sep-21,0.039,0.04,0.001521,0.0016
11:11:11,30-Sep-21,0.039,0.04,0.001521,0.0016
11:11:11,30-Sep-21,0.039,0.04,0.001521,0.0016
11:11:11,30-Sep-21,0.039,0.04,0.001521,0.0016
11:11:11,30-Sep-21,0.039,0.04,0.001521,0.0016
11:11:11,30-Sep-21,0.039,0.04,0.001521,0.0016
11:11:11,30-Sep-21,0.039,0.04,0.001521,0.0016
11:11:11,30-Sep-21,0.039,0.04,0.001521,0.0016
11:11:11,30-Sep-21,0.039,0.04,0.001521,0.0016
11:11:11,30-Sep-21,0.039,0.039,0.001521,0.001521
11:11:11,30-Sep-21,0.044,0.039,0.001936,0.001521
11:11:11,30-Sep-21,0.044,0.039,0.001936,0.001521
11:11:11,30-Sep-21,0.044,0.039,0.001936,0.001521
11:11:11,30-Sep-21,0.039,0.039,0.001521,0.001521
11:11:11,30-Sep-21,0.039,0.039,0.001521,0.001521
11:11:11,30-Sep-21,0.039,0.039,0.001521,0.001521
11:11:11,30-Sep-21,0.039,0.039,0.001521,0.001521
11:11:11,30-Sep-21,0.039,0.039,0.001521,0.001521
11:11:11,30-Sep-21,0.039,0.039,0.001521,0.001521
11:11:11,30-Sep-21,0.039,0.04,0.001521,0.0016
11:11:11,30-Sep-21,0.039,0.04,0.001521,0.0016
11:11:11,30-Sep-21,0.039,0.04,0.001521,0.0016
11:11:11,30-Sep-21,0.039,0.04,0.001521,0.0016
11:11:11,30-Sep-21,0.039,0.04,0.001521,0.0016
11:11:11,30-Sep-21,0.039,0.04,0.001521,0.0016
11:11:11,30-Sep-21,0.039,0.04,0.001521,0.0016
11:11:11,30-Sep-21,0.039,0.04,0.001521,0.0016
11:11:11,30-Sep-21,0.039,0.04,0.001521,0.0016
11:11:11,30-Sep-21,0.039,0.04,0.001521,0.0016
11:11:11,30-Sep-21,0.039,0.04,0.001521,0.0016
11:11:11,30-Sep-21,0.039,0.041,0.001521,0.001681
11:11:11,30-Sep-21,0.039,0.041,0.001521,0.001681
11:11:11,30-Sep-21,0.044,0.041,0.001936,0.001681
11:11:11,30-Sep-21,0.039,0.041,0.001521,0.001681
11:11:11,30-Sep-21,0.039,0.041,0.001521,0.001681
11:11:11,30-Sep-21,0.044,0.041,0.001936,0.001681
11:11:11,30-Sep-21,0.044,0.042,0.001936,0.001764
11:11:11,30-Sep-21,0.039,0.042,0.001521,0.001764
11:11:11,30-Sep-21,0.044,0.042,0.001936,0.001764
11:11:11,30-Sep-21,0.044,0.042,0.001936,0.001764
11:11:11,30-Sep-21,0.044,0.043,0.001936,0.001849
11:11:11,30-Sep-21,0.044,0.043,0.001936,0.001849
11:11:11,30-Sep-21,0.044,0.043,0.001936,0.001849
11:11:11,30-Sep-21,0.044,0.043,0.001936,0.001849
11:11:11,30-Sep-21,0.044,0.044,0.001936,0.001936
11:11:11,30-Sep-21,0.044,0.044,0.001936,0.001936
11:11:11,30-Sep-21,0.044,0.044,0.001936,0.001936
11:11:11,30-Sep-21,0.044,0.044,0.001936,0.001936
11:11:11,30-Sep-21,0.044,0.045,0.001936,0.002025
11:11:11,30-Sep-21,0.044,0.045,0.001936,0.002025
11:11:11,30-Sep-21,0.044,0.045,0.001936,0.002025
11:11:11,30-Sep-21,0.044,0.045,0.001936,0.002025
11:11:11,30-Sep-21,0.044,0.046,0.001936,0.002116
11:11:11,30-Sep-21,0.049,0.046,0.002401,0.002116
11:11:11,30-Sep-21,0.044,0.046,0.001936,0.002116
11:11:11,30-Sep-21,0.044,0.046,0.001936,0.002116
11:11:11,30-Sep-21,0.049,0.047,0.002401,0.002209
11:11:11,30-Sep-21,0.049,0.047,0.002401,0.002209
11:11:11,30-Sep-21,0.049,0.047,0.002401,0.002209
11:11:11,30-Sep-21,0.044,0.047,0.001936,0.002209
11:11:12,30-Sep-21,0.044,0.047,0.001936,0.002209
11:11:12,30-Sep-21,0.044,0.048,0.001936,0.002304
11:11:12,30-Sep-21,0.049,0.048,0.002401,0.002304
11:11:12,30-Sep-21,0.049,0.048,0.002401,0.002304
11:11:12,30-Sep-21,0.049,0.048,0.002401,0.002304
11:11:12,30-Sep-21,0.049,0.048,0.002401,0.002304
11:11:12,30-Sep-21,0.049,0.048,0.002401,0.002304
11:11:12,30-Sep-21,0.049,0.049,0.002401,0.002401
11:11:12,30-Sep-21,0.049,0.049,0.002401,0.002401
11:11:12,30-Sep-21,0.049,0.049,0.002401,0.002401
11:11:12,30-Sep-21,0.049,0.049,0.002401,0.002401
11:11:12,30-Sep-21,0.054,0.049,0.002916,0.002401
11:11:12,30-Sep-21,0.054,0.049,0.002916,0.002401
11:11:12,30-Sep-21,0.049,0.049,0.002401,0.002401
11:11:12,30-Sep-21,0.049,0.049,0.002401,0.002401
11:11:12,30-Sep-21,0.049,0.049,0.002401,0.002401
11:11:12,30-Sep-21,0.049,0.049,0.002401,0.002401
11:11:12,30-Sep-21,0.049,0.049,0.002401,0.002401
11:11:12,30-Sep-21,0.049,0.049,0.002401,0.002401
11:11:12,30-Sep-21,0.049,0.049,0.002401,0.002401
11:11:12,30-Sep-21,0.049,0.049,0.002401,0.002401
11:11:12,30-Sep-21,0.049,0.049,0.002401,0.002401
11:11:12,30-Sep-21,0.049,0.049,0.002401,0.002401
11:11:12,30-Sep-21,0.049,0.049,0.002401,0.002401
11:11:12,30-Sep-21,0.049,0.049,0.002401,0.002401
11:11:12,30-Sep-21,0.049,0.049,0.002401,0.002401
11:11:12,30-Sep-21,0.049,0.049,0.002401,0.002401
11:11:12,30-Sep-21,0.049,0.049,0.002401,0.002401
11:11:12,30-Sep-21,0.049,0.048,0.002401,0.002304
11:11:12,30-Sep-21,0.049,0.048,0.002401,0.002304
11:11:12,30-Sep-21,0.049,0.048,0.002401,0.002304
11:11:12,30-Sep-21,0.049,0.048,0.002401,0.002304
11:11:12,30-Sep-21,0.049,0.048,0.002401,0.002304
11:11:12,30-Sep-21,0.049,0.048,0.002401,0.002304
11:11:12,30-Sep-21,0.049,0.048,0.002401,0.002304
11:11:12,30-Sep-21,0.044,0.048,0.001936,0.002304
11:11:12,30-Sep-21,0.044,0.048,0.001936,0.002304
11:11:12,30-Sep-21,0.044,0.048,0.001936,0.002304
11:11:12,30-Sep-21,0.049,0.048,0.002401,0.002304
11:11:12,30-Sep-21,0.044,0.048,0.001936,0.002304
11:11:12,30-Sep-21,0.044,0.048,0.001936,0.002304
11:11:12,30-Sep-21,0.044,0.048,0.001936,0.002304
11:11:12,30-Sep-21,0.044,0.048,0.001936,0.002304
11:11:12,30-Sep-21,0.044,0.048,0.001936,0.002304
11:11:12,30-Sep-21,0.049,0.048,0.002401,0.002304
11:11:12,30-Sep-21,0.049,0.048,0.002401,0.002304
11:11:12,30-Sep-21,0.049,0.048,0.002401,0.002304
11:11:12,30-Sep-21,0.049,0.048,0.002401,0.002304
11:11:12,30-Sep-21,0.049,0.048,0.002401,0.002304
11:11:12,30-Sep-21,0.049,0.048,0.002401,0.002304
11:11:12,30-Sep-21,0.049,0.048,0.002401,0.002304
11:11:12,30-Sep-21,0.049,0.048,0.002401,0.002304
11:11:12,30-Sep-21,0.049,0.048,0.002401,0.002304
11:11:12,30-Sep-21,0.049,0.048,0.002401,0.002304
11:11:12,30-Sep-21,0.049,0.048,0.002401,0.002304
11:11:12,30-Sep-21,0.049,0.048,0.002401,0.002304
11:11:12,30-Sep-21,0.049,0.048,0.002401,0.002304
11:11:12,30-Sep-21,0.044,0.048,0.001936,0.002304
11:11:12,30-Sep-21,0.049,0.048,0.002401,0.002304
11:11:12,30-Sep-21,0.049,0.048,0.002401,0.002304
11:11:12,30-Sep-21,0.049,0.048,0.002401,0.002304
11:11:12,30-Sep-21,0.049,0.048,0.002401,0.002304
11:11:12,30-Sep-21,0.049,0.048,0.002401,0.002304
11:11:12,30-Sep-21,0.049,0.048,0.002401,0.002304
11:11:12,30-Sep-21,0.049,0.048,0.002401,0.002304
11:11:12,30-Sep-21,0.049,0.048,0.002401,0.002304
11:11:12,30-Sep-21,0.049,0.048,0.002401,0.002304
11:11:12,30-Sep-21,0.049,0.048,0.002401,0.002304
11:11:12,30-Sep-21,0.049,0.048,0.002401,0.002304
11:11:12,30-Sep-21,0.044,0.048,0.001936,0.002304
11:11:12,30-Sep-21,0.044,0.048,0.001936,0.002304
11:11:12,30-Sep-21,0.044,0.048,0.001936,0.002304
11:11:12,30-Sep-21,0.044,0.048,0.001936,0.002304
11:11:12,30-Sep-21,0.044,0.048,0.001936,0.002304
11:11:12,30-Sep-21,0.049,0.048,0.002401,0.002304
11:11:12,30-Sep-21,0.049,0.048,0.002401,0.002304
11:11:12,30-Sep-21,0.049,0.048,0.002401,0.002304
11:11:12,30-Sep-21,0.049,0.048,0.002401,0.002304
11:11:12,30-Sep-21,0.049,0.048,0.002401,0.002304
11:11:12,30-Sep-21,0.049,0.048,0.002401,0.002304
11:11:12,30-Sep-21,0.049,0.048,0.002401,0.002304
11:11:12,30-Sep-21,0.049,0.048,0.002401,0.002304
11:11:12,30-Sep-21,0.049,0.048,0.002401,0.002304
11:11:12,30-Sep-21,0.049,0.048,0.002401,0.002304
11:11:12,30-Sep-21,0.049,0.047,0.002401,0.002209
11:11:12,30-Sep-21,0.049,0.047,0.002401,0.002209
11:11:12,30-Sep-21,0.049,0.047,0.002401,0.002209
11:11:12,30-Sep-21,0.044,0.047,0.001936,0.002209
11:11:12,30-Sep-21,0.044,0.047,0.001936,0.002209
11:11:12,30-Sep-21,0.049,0.047,0.002401,0.002209
11:11:12,30-Sep-21,0.049,0.047,0.002401,0.002209
11:11:12,30-Sep-21,0.049,0.047,0.002401,0.002209
11:11:13,30-Sep-21,0.049,0.047,0.002401,0.002209
11:11:13,30-Sep-21,0.049,0.047,0.002401,0.002209
11:11:13,30-Sep-21,0.049,0.046,0.002401,0.002116
11:11:13,30-Sep-21,0.049,0.046,0.002401,0.002116
11:11:13,30-Sep-21,0.049,0.046,0.002401,0.002116
11:11:13,30-Sep-21,0.044,0.046,0.001936,0.002116
11:11:13,30-Sep-21,0.044,0.046,0.001936,0.002116
11:11:13,30-Sep-21,0.044,0.046,0.001936,0.002116
11:11:13,30-Sep-21,0.044,0.046,0.001936,0.002116
11:11:13,30-Sep-21,0.044,0.046,0.001936,0.002116
11:11:13,30-Sep-21,0.044,0.046,0.001936,0.002116
11:11:13,30-Sep-21,0.039,0.046,0.001521,0.002116
11:11:13,30-Sep-21,0.039,0.046,0.001521,0.002116
11:11:13,30-Sep-21,0.039,0.045,0.001521,0.002025
11:11:13,30-Sep-21,0.044,0.045,0.001936,0.002025
11:11:13,30-Sep-21,0.044,0.045,0.001936,0.002025
11:11:13,30-Sep-21,0.044,0.045,0.001936,0.002025
11:11:13,30-Sep-21,0.044,0.045,0.001936,0.002025
11:11:13,30-Sep-21,0.044,0.045,0.001936,0.002025
11:11:13,30-Sep-21,0.044,0.045,0.001936,0.002025
11:11:13,30-Sep-21,0.049,0.045,0.002401,0.002025
11:11:13,30-Sep-21,0.049,0.045,0.002401,0.002025
11:11:13,30-Sep-21,0.049,0.045,0.002401,0.002025
11:11:13,30-Sep-21,0.049,0.045,0.002401,0.002025
11:11:13,30-Sep-21,0.049,0.045,0.002401,0.002025
11:11:13,30-Sep-21,0.044,0.045,0.001936,0.002025
11:11:13,30-Sep-21,0.049,0.045,0.002401,0.002025
11:11:13,30-Sep-21,0.049,0.045,0.002401,0.002025
11:11:13,30-Sep-21,0.049,0.045,0.002401,0.002025
11:11:13,30-Sep-21,0.044,0.045,0.001936,0.002025
11:11:13,30-Sep-21,0.044,0.045,0.001936,0.002025
11:11:13,30-Sep-21,0.044,0.045,0.001936,0.002025
11:11:13,30-Sep-21,0.044,0.045,0.001936,0.002025
11:11:13,30-Sep-21,0.044,0.045,0.001936,0.002025
11:11:13,30-Sep-21,0.044,0.045,0.001936,0.002025
11:11:13,30-Sep-21,0.044,0.045,0.001936,0.002025
11:11:13,30-Sep-21,0.044,0.045,0.001936,0.002025
11:11:13,30-Sep-21,0.044,0.045,0.001936,0.002025
11:11:13,30-Sep-21,0.044,0.044,0.001936,0.001936
11:11:13,30-Sep-21,0.044,0.044,0.001936,0.001936
11:11:13,30-Sep-21,0.044,0.044,0.001936,0.001936
11:11:13,30-Sep-21,0.044,0.044,0.001936,0.001936
11:11:13,30-Sep-21,0.044,0.044,0.001936,0.001936
11:11:13,30-Sep-21,0.044,0.044,0.001936,0.001936
11:11:13,30-Sep-21,0.044,0.044,0.001936,0.001936
11:11:13,30-Sep-21,0.044,0.044,0.001936,0.001936
11:11:13,30-Sep-21,0.044,0.044,0.001936,0.001936
11:11:13,30-Sep-21,0.044,0.044,0.001936,0.001936
11:11:13,30-Sep-21,0.044,0.044,0.001936,0.001936
11:11:13,30-Sep-21,0.044,0.044,0.001936,0.001936
11:11:13,30-Sep-21,0.044,0.044,0.001936,0.001936
11:11:13,30-Sep-21,0.044,0.045,0.001936,0.002025
11:11:13,30-Sep-21,0.044,0.045,0.001936,0.002025
11:11:13,30-Sep-21,0.044,0.045,0.001936,0.002025
11:11:13,30-Sep-21,0.044,0.045,0.001936,0.002025
11:11:13,30-Sep-21,0.044,0.045,0.001936,0.002025
11:11:13,30-Sep-21,0.044,0.045,0.001936,0.002025
11:11:13,30-Sep-21,0.044,0.045,0.001936,0.002025
11:11:13,30-Sep-21,0.044,0.045,0.001936,0.002025
11:11:13,30-Sep-21,0.044,0.045,0.001936,0.002025
11:11:13,30-Sep-21,0.044,0.045,0.001936,0.002025
11:11:13,30-Sep-21,0.044,0.045,0.001936,0.002025
11:11:13,30-Sep-21,0.044,0.045,0.001936,0.002025
11:11:13,30-Sep-21,0.044,0.045,0.001936,0.002025
11:11:13,30-Sep-21,0.044,0.045,0.001936,0.002025
11:11:13,30-Sep-21,0.044,0.045,0.001936,0.002025
11:11:13,30-Sep-21,0.044,0.045,0.001936,0.002025
11:11:13,30-Sep-21,0.049,0.045,0.002401,0.002025
11:11:13,30-Sep-21,0.049,0.045,0.002401,0.002025
11:11:13,30-Sep-21,0.049,0.045,0.002401,0.002025
11:11:13,30-Sep-21,0.049,0.045,0.002401,0.002025
11:11:13,30-Sep-21,0.049,0.045,0.002401,0.002025
11:11:13,30-Sep-21,0.049,0.045,0.002401,0.002025
11:11:13,30-Sep-21,0.049,0.045,0.002401,0.002025
11:11:13,30-Sep-21,0.044,0.045,0.001936,0.002025
11:11:13,30-Sep-21,0.044,0.045,0.001936,0.002025
11:11:13,30-Sep-21,0.044,0.045,0.001936,0.002025
11:11:13,30-Sep-21,0.044,0.045,0.001936,0.002025
