Time,Date,EMG Value (V),Filtered Value (V),,
10:17:13,30-Sep-21,1.608,1.605,2.585664,2.576025
10:17:13,30-Sep-21,1.647,1.607,2.712609,2.582449
10:17:13,30-Sep-21,1.647,1.609,2.712609,2.588881
10:17:13,30-Sep-21,1.657,1.611,2.745649,2.595321
10:17:13,30-Sep-21,1.662,1.612,2.762244,2.598544
10:17:13,30-Sep-21,1.657,1.614,2.745649,2.604996
10:17:13,30-Sep-21,1.657,1.616,2.745649,2.611456
10:17:13,30-Sep-21,1.652,1.617,2.729104,2.614689
10:17:13,30-Sep-21,1.652,1.619,2.729104,2.621161
10:17:13,30-Sep-21,1.6325,1.62,2.66505625,2.6244
10:17:13,30-Sep-21,1.6325,1.621,2.66505625,2.627641
10:17:13,30-Sep-21,1.6325,1.623,2.66505625,2.634129
10:17:13,30-Sep-21,1.6225,1.624,2.63250625,2.637376
10:17:13,30-Sep-21,1.6225,1.625,2.63250625,2.640625
10:17:13,30-Sep-21,1.6225,1.626,2.63250625,2.643876
10:17:13,30-Sep-21,1.6225,1.627,2.63250625,2.647129
10:17:13,30-Sep-21,1.6225,1.628,2.63250625,2.650384
10:17:13,30-Sep-21,1.603,1.629,2.569609,2.653641
10:17:13,30-Sep-21,1.603,1.63,2.569609,2.6569
10:17:13,30-Sep-21,1.603,1.631,2.569609,2.660161
10:17:13,30-Sep-21,1.603,1.632,2.569609,2.663424
10:17:13,30-Sep-21,1.608,1.633,2.585664,2.666689
10:17:13,30-Sep-21,1.608,1.634,2.585664,2.669956
10:17:13,30-Sep-21,1.608,1.635,2.585664,2.673225
10:17:13,30-Sep-21,1.6275,1.636,2.64875625,2.676496
10:17:13,30-Sep-21,1.6275,1.637,2.64875625,2.679769
10:17:13,30-Sep-21,1.6275,1.638,2.64875625,2.683044
10:17:13,30-Sep-21,1.6275,1.638,2.64875625,2.683044
10:17:13,30-Sep-21,1.642,1.639,2.696164,2.686321
10:17:13,30-Sep-21,1.642,1.64,2.696164,2.6896
10:17:13,30-Sep-21,1.642,1.641,2.696164,2.692881
10:17:13,30-Sep-21,1.642,1.641,2.696164,2.692881
10:17:13,30-Sep-21,1.642,1.642,2.696164,2.696164
10:17:13,30-Sep-21,1.652,1.642,2.729104,2.696164
10:17:13,30-Sep-21,1.652,1.642,2.729104,2.696164
10:17:13,30-Sep-21,1.652,1.642,2.729104,2.696164
10:17:13,30-Sep-21,1.662,1.642,2.762244,2.696164
10:17:13,30-Sep-21,1.662,1.642,2.762244,2.696164
10:17:13,30-Sep-21,1.662,1.642,2.762244,2.696164
10:17:13,30-Sep-21,1.662,1.642,2.762244,2.696164
10:17:13,30-Sep-21,1.662,1.641,2.762244,2.692881
10:17:13,30-Sep-21,1.662,1.64,2.762244,2.6896
10:17:13,30-Sep-21,1.662,1.639,2.762244,2.686321
10:17:13,30-Sep-21,1.662,1.639,2.762244,2.686321
10:17:13,30-Sep-21,1.662,1.638,2.762244,2.683044
10:17:13,30-Sep-21,1.642,1.637,2.696164,2.679769
10:17:13,30-Sep-21,1.642,1.635,2.696164,2.673225
10:17:13,30-Sep-21,1.642,1.634,2.696164,2.669956
10:17:13,30-Sep-21,1.6325,1.633,2.66505625,2.666689
10:17:13,30-Sep-21,1.6325,1.632,2.66505625,2.663424
10:17:13,30-Sep-21,1.6325,1.631,2.66505625,2.660161
10:17:13,30-Sep-21,1.613,1.63,2.601769,2.6569
10:17:13,30-Sep-21,1.613,1.629,2.601769,2.653641
10:17:13,30-Sep-21,1.613,1.629,2.601769,2.653641
10:17:13,30-Sep-21,1.613,1.628,2.601769,2.650384
10:17:13,30-Sep-21,1.608,1.628,2.585664,2.650384
10:17:13,30-Sep-21,1.608,1.627,2.585664,2.647129
10:17:13,30-Sep-21,1.608,1.627,2.585664,2.647129
10:17:13,30-Sep-21,1.608,1.627,2.585664,2.647129
10:17:13,30-Sep-21,1.608,1.628,2.585664,2.650384
10:17:13,30-Sep-21,1.608,1.628,2.585664,2.650384
10:17:13,30-Sep-21,1.603,1.629,2.569609,2.653641
10:17:13,30-Sep-21,1.603,1.63,2.569609,2.6569
10:17:13,30-Sep-21,1.603,1.631,2.569609,2.660161
10:17:13,30-Sep-21,1.618,1.632,2.617924,2.663424
10:17:13,30-Sep-21,1.618,1.633,2.617924,2.666689
10:17:13,30-Sep-21,1.618,1.635,2.617924,2.673225
10:17:13,30-Sep-21,1.6325,1.636,2.66505625,2.676496
10:17:13,30-Sep-21,1.6325,1.638,2.66505625,2.683044
10:17:13,30-Sep-21,1.6325,1.64,2.66505625,2.6896
10:17:13,30-Sep-21,1.6715,1.641,2.79391225,2.692881
10:17:13,30-Sep-21,1.6715,1.643,2.79391225,2.699449
10:17:13,30-Sep-21,1.6815,1.645,2.82744225,2.706025
10:17:13,30-Sep-21,1.6815,1.646,2.82744225,2.709316
10:17:13,30-Sep-21,1.6815,1.648,2.82744225,2.715904
10:17:13,30-Sep-21,1.6815,1.649,2.82744225,2.719201
10:17:13,30-Sep-21,1.6815,1.651,2.82744225,2.725801
10:17:13,30-Sep-21,1.6815,1.652,2.82744225,2.729104
10:17:13,30-Sep-21,1.6815,1.653,2.82744225,2.732409
10:17:13,30-Sep-21,1.6765,1.654,2.81065225,2.735716
10:17:13,30-Sep-21,1.6765,1.655,2.81065225,2.739025
10:17:13,30-Sep-21,1.652,1.656,2.729104,2.742336
10:17:14,30-Sep-21,1.652,1.657,2.729104,2.745649
10:17:14,30-Sep-21,1.642,1.658,2.696164,2.748964
10:17:14,30-Sep-21,1.642,1.658,2.696164,2.748964
10:17:14,30-Sep-21,1.642,1.659,2.696164,2.752281
10:17:14,30-Sep-21,1.642,1.66,2.696164,2.7556
10:17:14,30-Sep-21,1.6275,1.66,2.64875625,2.7556
10:17:14,30-Sep-21,1.6275,1.661,2.64875625,2.758921
10:17:14,30-Sep-21,1.6225,1.661,2.63250625,2.758921
10:17:14,30-Sep-21,1.6275,1.661,2.64875625,2.758921
10:17:14,30-Sep-21,1.6275,1.662,2.64875625,2.762244
10:17:14,30-Sep-21,1.662,1.662,2.762244,2.762244
10:17:14,30-Sep-21,1.662,1.662,2.762244,2.762244
10:17:14,30-Sep-21,1.662,1.662,2.762244,2.762244
10:17:14,30-Sep-21,1.6765,1.662,2.81065225,2.762244
10:17:14,30-Sep-21,1.6765,1.662,2.81065225,2.762244
10:17:14,30-Sep-21,1.6765,1.662,2.81065225,2.762244
10:17:14,30-Sep-21,1.691,1.662,2.859481,2.762244
10:17:14,30-Sep-21,1.691,1.662,2.859481,2.762244
10:17:14,30-Sep-21,1.691,1.662,2.859481,2.762244
10:17:14,30-Sep-21,1.6765,1.662,2.81065225,2.762244
10:17:14,30-Sep-21,1.6765,1.661,2.81065225,2.758921
10:17:14,30-Sep-21,1.6765,1.661,2.81065225,2.758921
10:17:14,30-Sep-21,1.6715,1.661,2.79391225,2.758921
10:17:14,30-Sep-21,1.6715,1.66,2.79391225,2.7556
10:17:14,30-Sep-21,1.647,1.66,2.712609,2.7556
10:17:14,30-Sep-21,1.647,1.659,2.712609,2.752281
10:17:14,30-Sep-21,1.647,1.658,2.712609,2.748964
10:17:14,30-Sep-21,1.642,1.658,2.696164,2.748964
10:17:14,30-Sep-21,1.642,1.657,2.696164,2.745649
10:17:14,30-Sep-21,1.6375,1.657,2.68140625,2.745649
10:17:14,30-Sep-21,1.6375,1.656,2.68140625,2.742336
10:17:14,30-Sep-21,1.6375,1.655,2.68140625,2.739025
10:17:14,30-Sep-21,1.6375,1.655,2.68140625,2.739025
10:17:14,30-Sep-21,1.6375,1.654,2.68140625,2.735716
10:17:14,30-Sep-21,1.6375,1.654,2.68140625,2.735716
10:17:14,30-Sep-21,1.6375,1.653,2.68140625,2.732409
10:17:14,30-Sep-21,1.647,1.652,2.712609,2.729104
10:17:14,30-Sep-21,1.647,1.652,2.712609,2.729104
10:17:14,30-Sep-21,1.6715,1.651,2.79391225,2.725801
10:17:14,30-Sep-21,1.6715,1.651,2.79391225,2.725801
10:17:14,30-Sep-21,1.6765,1.65,2.81065225,2.7225
10:17:14,30-Sep-21,1.6765,1.649,2.81065225,2.719201
10:17:14,30-Sep-21,1.6715,1.649,2.79391225,2.719201
10:17:14,30-Sep-21,1.6715,1.648,2.79391225,2.715904
10:17:14,30-Sep-21,1.6715,1.648,2.79391225,2.715904
10:17:14,30-Sep-21,1.6715,1.647,2.79391225,2.712609
10:17:14,30-Sep-21,1.6715,1.646,2.79391225,2.709316
10:17:14,30-Sep-21,1.662,1.646,2.762244,2.709316
10:17:14,30-Sep-21,1.662,1.645,2.762244,2.706025
10:17:14,30-Sep-21,1.6375,1.645,2.68140625,2.706025
10:17:14,30-Sep-21,1.6375,1.645,2.68140625,2.706025
10:17:14,30-Sep-21,1.6325,1.644,2.66505625,2.702736
10:17:14,30-Sep-21,1.6325,1.644,2.66505625,2.702736
10:17:14,30-Sep-21,1.613,1.644,2.601769,2.702736
10:17:14,30-Sep-21,1.613,1.644,2.601769,2.702736
10:17:14,30-Sep-21,1.613,1.644,2.601769,2.702736
10:17:14,30-Sep-21,1.613,1.644,2.601769,2.702736
10:17:14,30-Sep-21,1.613,1.644,2.601769,2.702736
10:17:14,30-Sep-21,1.613,1.644,2.601769,2.702736
10:17:14,30-Sep-21,1.613,1.645,2.601769,2.706025
10:17:14,30-Sep-21,1.613,1.645,2.601769,2.706025
10:17:14,30-Sep-21,1.647,1.646,2.712609,2.709316
10:17:14,30-Sep-21,1.647,1.646,2.712609,2.709316
10:17:14,30-Sep-21,1.647,1.647,2.712609,2.712609
10:17:14,30-Sep-21,1.657,1.647,2.745649,2.712609
10:17:14,30-Sep-21,1.657,1.648,2.745649,2.715904
10:17:14,30-Sep-21,1.657,1.648,2.745649,2.715904
10:17:14,30-Sep-21,1.6715,1.649,2.79391225,2.719201
10:17:14,30-Sep-21,1.6715,1.649,2.79391225,2.719201
10:17:14,30-Sep-21,1.6665,1.649,2.77722225,2.719201
10:17:14,30-Sep-21,1.6665,1.649,2.77722225,2.719201
10:17:14,30-Sep-21,1.6665,1.649,2.77722225,2.719201
10:17:14,30-Sep-21,1.6665,1.649,2.77722225,2.719201
10:17:14,30-Sep-21,1.6665,1.649,2.77722225,2.719201
10:17:14,30-Sep-21,1.6665,1.648,2.77722225,2.715904
10:17:14,30-Sep-21,1.6665,1.648,2.77722225,2.715904
10:17:14,30-Sep-21,1.6665,1.647,2.77722225,2.712609
10:17:14,30-Sep-21,1.652,1.646,2.729104,2.709316
10:17:14,30-Sep-21,1.652,1.645,2.729104,2.706025
10:17:14,30-Sep-21,1.652,1.644,2.729104,2.702736
10:17:14,30-Sep-21,1.652,1.643,2.729104,2.699449
10:17:14,30-Sep-21,1.652,1.642,2.729104,2.696164
10:17:14,30-Sep-21,1.642,1.641,2.696164,2.692881
10:17:14,30-Sep-21,1.642,1.639,2.696164,2.686321
10:17:14,30-Sep-21,1.642,1.638,2.696164,2.683044
10:17:14,30-Sep-21,1.618,1.636,2.617924,2.676496
10:17:14,30-Sep-21,1.618,1.635,2.617924,2.673225
10:17:14,30-Sep-21,1.618,1.634,2.617924,2.669956
10:17:14,30-Sep-21,1.613,1.632,2.601769,2.663424
10:17:14,30-Sep-21,1.613,1.631,2.601769,2.660161
10:17:14,30-Sep-21,1.613,1.63,2.601769,2.6569
10:17:14,30-Sep-21,1.613,1.629,2.601769,2.653641
10:17:14,30-Sep-21,1.613,1.628,2.601769,2.650384
10:17:14,30-Sep-21,1.613,1.627,2.601769,2.647129
10:17:14,30-Sep-21,1.608,1.626,2.585664,2.643876
10:17:14,30-Sep-21,1.608,1.625,2.585664,2.640625
10:17:14,30-Sep-21,1.608,1.624,2.585664,2.637376
10:17:14,30-Sep-21,1.608,1.623,2.585664,2.634129
10:17:14,30-Sep-21,1.608,1.622,2.585664,2.630884
10:17:14,30-Sep-21,1.608,1.622,2.585664,2.630884
10:17:14,30-Sep-21,1.608,1.621,2.585664,2.627641
10:17:14,30-Sep-21,1.618,1.62,2.617924,2.6244
10:17:14,30-Sep-21,1.618,1.619,2.617924,2.621161
10:17:14,30-Sep-21,1.618,1.618,2.617924,2.617924
10:17:14,30-Sep-21,1.642,1.617,2.696164,2.614689
10:17:14,30-Sep-21,1.642,1.616,2.696164,2.611456
10:17:14,30-Sep-21,1.642,1.615,2.696164,2.608225
10:17:14,30-Sep-21,1.6375,1.614,2.68140625,2.604996
10:17:14,30-Sep-21,1.6375,1.613,2.68140625,2.601769
10:17:14,30-Sep-21,1.6375,1.612,2.68140625,2.598544
10:17:14,30-Sep-21,1.6375,1.61,2.68140625,2.5921
10:17:14,30-Sep-21,1.6375,1.609,2.68140625,2.588881
10:17:14,30-Sep-21,1.6275,1.607,2.64875625,2.582449
10:17:14,30-Sep-21,1.6275,1.606,2.64875625,2.579236
10:17:14,30-Sep-21,1.6275,1.604,2.64875625,2.572816
10:17:14,30-Sep-21,1.613,1.602,2.601769,2.566404
10:17:14,30-Sep-21,1.613,1.601,2.601769,2.563201
10:17:14,30-Sep-21,1.5885,1.599,2.52333225,2.556801
10:17:14,30-Sep-21,1.5885,1.597,2.52333225,2.550409
10:17:14,30-Sep-21,1.574,1.595,2.477476,2.544025
10:17:14,30-Sep-21,1.574,1.593,2.477476,2.537649
10:17:14,30-Sep-21,1.574,1.592,2.477476,2.534464
10:17:14,30-Sep-21,1.574,1.59,2.477476,2.5281
10:17:14,30-Sep-21,1.574,1.589,2.477476,2.524921
10:17:14,30-Sep-21,1.564,1.587,2.446096,2.518569
10:17:14,30-Sep-21,1.564,1.586,2.446096,2.515396
10:17:14,30-Sep-21,1.5545,1.585,2.41647025,2.512225
10:17:14,30-Sep-21,1.5545,1.584,2.41647025,2.509056
10:17:14,30-Sep-21,1.5545,1.583,2.41647025,2.505889
10:17:14,30-Sep-21,1.5545,1.582,2.41647025,2.502724
10:17:14,30-Sep-21,1.5545,1.581,2.41647025,2.499561
10:17:14,30-Sep-21,1.5835,1.58,2.50747225,2.4964
10:17:14,30-Sep-21,1.5835,1.579,2.50747225,2.493241
10:17:14,30-Sep-21,1.5935,1.579,2.53924225,2.493241
10:17:14,30-Sep-21,1.5935,1.578,2.53924225,2.490084
10:17:14,30-Sep-21,1.5935,1.578,2.53924225,2.490084
10:17:14,30-Sep-21,1.5935,1.578,2.53924225,2.490084
10:17:14,30-Sep-21,1.5935,1.577,2.53924225,2.486929
10:17:14,30-Sep-21,1.603,1.577,2.569609,2.486929
10:17:14,30-Sep-21,1.603,1.577,2.569609,2.486929
10:17:14,30-Sep-21,1.603,1.576,2.569609,2.483776
10:17:14,30-Sep-21,1.603,1.576,2.569609,2.483776
10:17:14,30-Sep-21,1.5885,1.576,2.52333225,2.483776
10:17:14,30-Sep-21,1.5885,1.575,2.52333225,2.480625
10:17:14,30-Sep-21,1.5785,1.575,2.49166225,2.480625
10:17:14,30-Sep-21,1.5785,1.575,2.49166225,2.480625
10:17:14,30-Sep-21,1.5785,1.575,2.49166225,2.480625
10:17:14,30-Sep-21,1.569,1.574,2.461761,2.477476
10:17:14,30-Sep-21,1.569,1.574,2.461761,2.477476
10:17:14,30-Sep-21,1.569,1.574,2.461761,2.477476
10:17:14,30-Sep-21,1.569,1.574,2.461761,2.477476
10:17:14,30-Sep-21,1.5495,1.574,2.40095025,2.477476
10:17:14,30-Sep-21,1.5495,1.574,2.40095025,2.477476
10:17:15,30-Sep-21,1.5445,1.573,2.38548025,2.474329
10:17:15,30-Sep-21,1.5445,1.573,2.38548025,2.474329
10:17:15,30-Sep-21,1.5445,1.573,2.38548025,2.474329
10:17:15,30-Sep-21,1.5545,1.573,2.41647025,2.474329
10:17:15,30-Sep-21,1.5545,1.573,2.41647025,2.474329
10:17:15,30-Sep-21,1.564,1.573,2.446096,2.474329
10:17:15,30-Sep-21,1.564,1.573,2.446096,2.474329
10:17:15,30-Sep-21,1.564,1.574,2.446096,2.477476
10:17:15,30-Sep-21,1.5935,1.573,2.53924225,2.474329
10:17:15,30-Sep-21,1.5935,1.573,2.53924225,2.474329
10:17:15,30-Sep-21,1.5935,1.573,2.53924225,2.474329
10:17:15,30-Sep-21,1.5935,1.573,2.53924225,2.474329
10:17:15,30-Sep-21,1.598,1.573,2.553604,2.474329
10:17:15,30-Sep-21,1.598,1.573,2.553604,2.474329
10:17:15,30-Sep-21,1.5935,1.573,2.53924225,2.474329
10:17:15,30-Sep-21,1.5935,1.572,2.53924225,2.471184
10:17:15,30-Sep-21,1.5885,1.572,2.52333225,2.471184
10:17:15,30-Sep-21,1.5885,1.572,2.52333225,2.471184
10:17:15,30-Sep-21,1.5885,1.571,2.52333225,2.468041
10:17:15,30-Sep-21,1.5785,1.571,2.49166225,2.468041
10:17:15,30-Sep-21,1.5785,1.57,2.49166225,2.4649
10:17:15,30-Sep-21,1.5785,1.57,2.49166225,2.4649
10:17:15,30-Sep-21,1.5785,1.57,2.49166225,2.4649
10:17:15,30-Sep-21,1.559,1.569,2.430481,2.461761
10:17:15,30-Sep-21,1.559,1.569,2.430481,2.461761
10:17:15,30-Sep-21,1.559,1.569,2.430481,2.461761
10:17:15,30-Sep-21,1.5545,1.569,2.41647025,2.461761
10:17:15,30-Sep-21,1.5545,1.569,2.41647025,2.461761
10:17:15,30-Sep-21,1.5545,1.569,2.41647025,2.461761
10:17:15,30-Sep-21,1.5445,1.569,2.38548025,2.461761
10:17:15,30-Sep-21,1.5445,1.569,2.38548025,2.461761
10:17:15,30-Sep-21,1.5445,1.57,2.38548025,2.4649
10:17:15,30-Sep-21,1.5445,1.571,2.38548025,2.468041
10:17:15,30-Sep-21,1.5445,1.571,2.38548025,2.468041
10:17:15,30-Sep-21,1.5445,1.572,2.38548025,2.471184
10:17:15,30-Sep-21,1.5785,1.573,2.49166225,2.474329
10:17:15,30-Sep-21,1.5785,1.574,2.49166225,2.477476
10:17:15,30-Sep-21,1.5785,1.575,2.49166225,2.480625
10:17:15,30-Sep-21,1.5785,1.577,2.49166225,2.486929
10:17:15,30-Sep-21,1.5785,1.578,2.49166225,2.490084
10:17:15,30-Sep-21,1.5885,1.58,2.52333225,2.4964
10:17:15,30-Sep-21,1.5885,1.581,2.52333225,2.499561
10:17:15,30-Sep-21,1.5885,1.583,2.52333225,2.505889
10:17:15,30-Sep-21,1.603,1.584,2.569609,2.509056
10:17:15,30-Sep-21,1.603,1.586,2.569609,2.515396
10:17:15,30-Sep-21,1.603,1.588,2.569609,2.521744
10:17:15,30-Sep-21,1.603,1.589,2.569609,2.524921
10:17:15,30-Sep-21,1.603,1.591,2.569609,2.531281
10:17:15,30-Sep-21,1.603,1.592,2.569609,2.534464
10:17:15,30-Sep-21,1.603,1.594,2.569609,2.540836
10:17:15,30-Sep-21,1.603,1.595,2.569609,2.544025
10:17:15,30-Sep-21,1.603,1.597,2.569609,2.550409
10:17:15,30-Sep-21,1.603,1.598,2.569609,2.553604
10:17:15,30-Sep-21,1.603,1.6,2.569609,2.56
10:17:15,30-Sep-21,1.603,1.601,2.569609,2.563201
10:17:15,30-Sep-21,1.603,1.603,2.569609,2.569609
10:17:15,30-Sep-21,1.603,1.604,2.569609,2.572816
10:17:15,30-Sep-21,1.603,1.605,2.569609,2.576025
10:17:15,30-Sep-21,1.613,1.607,2.601769,2.582449
10:17:15,30-Sep-21,1.613,1.608,2.601769,2.585664
10:17:15,30-Sep-21,1.613,1.609,2.601769,2.588881
10:17:15,30-Sep-21,1.598,1.611,2.553604,2.595321
10:17:15,30-Sep-21,1.598,1.612,2.553604,2.598544
10:17:15,30-Sep-21,1.598,1.613,2.553604,2.601769
10:17:15,30-Sep-21,1.598,1.615,2.553604,2.608225
10:17:15,30-Sep-21,1.603,1.616,2.569609,2.611456
10:17:15,30-Sep-21,1.603,1.617,2.569609,2.614689
10:17:15,30-Sep-21,1.603,1.618,2.569609,2.617924
10:17:15,30-Sep-21,1.603,1.62,2.569609,2.6244
10:17:15,30-Sep-21,1.613,1.621,2.601769,2.627641
10:17:15,30-Sep-21,1.613,1.622,2.601769,2.630884
10:17:15,30-Sep-21,1.618,1.623,2.617924,2.634129
10:17:15,30-Sep-21,1.618,1.624,2.617924,2.637376
10:17:15,30-Sep-21,1.618,1.625,2.617924,2.640625
10:17:15,30-Sep-21,1.642,1.625,2.696164,2.640625
10:17:15,30-Sep-21,1.642,1.626,2.696164,2.643876
10:17:15,30-Sep-21,1.647,1.627,2.712609,2.647129
10:17:15,30-Sep-21,1.647,1.627,2.712609,2.647129
10:17:15,30-Sep-21,1.647,1.627,2.712609,2.647129
10:17:15,30-Sep-21,1.647,1.627,2.712609,2.647129
10:17:15,30-Sep-21,1.647,1.627,2.712609,2.647129
10:17:15,30-Sep-21,1.642,1.627,2.696164,2.647129
10:17:15,30-Sep-21,1.642,1.627,2.696164,2.647129
10:17:15,30-Sep-21,1.642,1.626,2.696164,2.643876
10:17:15,30-Sep-21,1.6275,1.625,2.64875625,2.640625
10:17:15,30-Sep-21,1.6275,1.624,2.64875625,2.637376
10:17:15,30-Sep-21,1.618,1.623,2.617924,2.634129
10:17:15,30-Sep-21,1.618,1.622,2.617924,2.630884
10:17:15,30-Sep-21,1.618,1.62,2.617924,2.6244
10:17:15,30-Sep-21,1.5935,1.619,2.53924225,2.621161
10:17:15,30-Sep-21,1.5935,1.617,2.53924225,2.614689
10:17:15,30-Sep-21,1.5935,1.614,2.53924225,2.604996
10:17:15,30-Sep-21,1.5835,1.612,2.50747225,2.598544
10:17:15,30-Sep-21,1.5835,1.609,2.50747225,2.588881
10:17:15,30-Sep-21,1.5835,1.606,2.50747225,2.579236
10:17:15,30-Sep-21,1.5835,1.603,2.50747225,2.569609
10:17:15,30-Sep-21,1.5835,1.6,2.50747225,2.56
10:17:15,30-Sep-21,1.5835,1.596,2.50747225,2.547216
10:17:15,30-Sep-21,1.5835,1.591,2.50747225,2.531281
10:17:15,30-Sep-21,1.564,1.587,2.446096,2.518569
10:17:15,30-Sep-21,1.564,1.582,2.446096,2.502724
10:17:15,30-Sep-21,1.564,1.576,2.446096,2.483776
10:17:15,30-Sep-21,1.5545,1.57,2.41647025,2.4649
10:17:15,30-Sep-21,1.5545,1.564,2.41647025,2.446096
10:17:15,30-Sep-21,1.5545,1.557,2.41647025,2.424249
10:17:15,30-Sep-21,1.564,1.55,2.446096,2.4025
10:17:15,30-Sep-21,1.564,1.542,2.446096,2.377764
10:17:15,30-Sep-21,1.564,1.534,2.446096,2.353156
10:17:15,30-Sep-21,1.564,1.525,2.446096,2.325625
10:17:15,30-Sep-21,1.5395,1.515,2.37006025,2.295225
10:17:15,30-Sep-21,1.5395,1.505,2.37006025,2.265025
10:17:15,30-Sep-21,1.5395,1.494,2.37006025,2.232036
10:17:15,30-Sep-21,1.5395,1.483,2.37006025,2.199289
10:17:15,30-Sep-21,1.5395,1.472,2.37006025,2.166784
10:17:15,30-Sep-21,1.481,1.46,2.193361,2.1316
10:17:15,30-Sep-21,1.481,1.447,2.193361,2.093809
10:17:15,30-Sep-21,1.481,1.435,2.193361,2.059225
10:17:15,30-Sep-21,1.427,1.422,2.036329,2.022084
10:17:15,30-Sep-21,1.427,1.408,2.036329,1.982464
10:17:15,30-Sep-21,1.427,1.395,2.036329,1.946025
10:17:15,30-Sep-21,1.3585,1.381,1.84552225,1.907161
10:17:15,30-Sep-21,1.3585,1.368,1.84552225,1.871424
10:17:15,30-Sep-21,1.3585,1.354,1.84552225,1.833316
10:17:15,30-Sep-21,1.3,1.341,1.69,1.798281
10:17:15,30-Sep-21,1.3,1.327,1.69,1.760929
10:17:15,30-Sep-21,1.261,1.314,1.590121,1.726596
10:17:15,30-Sep-21,1.261,1.301,1.590121,1.692601
10:17:15,30-Sep-21,1.261,1.288,1.590121,1.658944
10:17:15,30-Sep-21,1.261,1.276,1.590121,1.628176
10:17:15,30-Sep-21,1.261,1.264,1.590121,1.597696
10:17:15,30-Sep-21,1.217,1.253,1.481089,1.570009
10:17:15,30-Sep-21,1.217,1.242,1.481089,1.542564
10:17:15,30-Sep-21,1.217,1.231,1.481089,1.515361
10:17:15,30-Sep-21,1.1875,1.221,1.41015625,1.490841
10:17:15,30-Sep-21,1.1875,1.212,1.41015625,1.468944
10:17:15,30-Sep-21,1.173,1.203,1.375929,1.447209
10:17:15,30-Sep-21,1.173,1.195,1.375929,1.428025
10:17:15,30-Sep-21,1.173,1.187,1.375929,1.408969
10:17:15,30-Sep-21,1.163,1.18,1.352569,1.3924
10:17:15,30-Sep-21,1.163,1.173,1.352569,1.375929
10:17:15,30-Sep-21,1.163,1.167,1.352569,1.361889
10:17:15,30-Sep-21,1.163,1.161,1.352569,1.347921
10:17:15,30-Sep-21,1.163,1.156,1.352569,1.336336
10:17:15,30-Sep-21,1.163,1.151,1.352569,1.324801
10:17:15,30-Sep-21,1.163,1.147,1.352569,1.315609
10:17:15,30-Sep-21,1.168,1.143,1.364224,1.306449
10:17:15,30-Sep-21,1.168,1.139,1.364224,1.297321
10:17:15,30-Sep-21,1.1585,1.136,1.34212225,1.290496
10:17:15,30-Sep-21,1.1585,1.133,1.34212225,1.283689
10:17:15,30-Sep-21,1.1585,1.13,1.34212225,1.2769
10:17:15,30-Sep-21,1.1435,1.128,1.30759225,1.272384
10:17:15,30-Sep-21,1.1435,1.126,1.30759225,1.267876
10:17:15,30-Sep-21,1.134,1.124,1.285956,1.263376
10:17:15,30-Sep-21,1.134,1.122,1.285956,1.258884
10:17:15,30-Sep-21,1.134,1.12,1.285956,1.2544
10:17:15,30-Sep-21,1.134,1.119,1.285956,1.252161
10:17:15,30-Sep-21,1.134,1.118,1.285956,1.249924
10:17:15,30-Sep-21,1.1145,1.117,1.24211025,1.247689
10:17:15,30-Sep-21,1.1145,1.116,1.24211025,1.245456
10:17:15,30-Sep-21,1.1045,1.115,1.21992025,1.243225
10:17:15,30-Sep-21,1.1045,1.115,1.21992025,1.243225
10:17:15,30-Sep-21,1.095,1.114,1.199025,1.240996
10:17:15,30-Sep-21,1.095,1.114,1.199025,1.240996
10:17:15,30-Sep-21,1.095,1.114,1.199025,1.240996
10:17:15,30-Sep-21,1.095,1.114,1.199025,1.240996
10:17:15,30-Sep-21,1.095,1.114,1.199025,1.240996
10:17:15,30-Sep-21,1.095,1.114,1.199025,1.240996
10:17:15,30-Sep-21,1.095,1.114,1.199025,1.240996
10:17:16,30-Sep-21,1.095,1.115,1.199025,1.243225
10:17:16,30-Sep-21,1.095,1.115,1.199025,1.243225
10:17:16,30-Sep-21,1.1195,1.115,1.25328025,1.243225
10:17:16,30-Sep-21,1.1195,1.116,1.25328025,1.245456
10:17:16,30-Sep-21,1.129,1.116,1.274641,1.245456
10:17:16,30-Sep-21,1.129,1.117,1.274641,1.247689
10:17:16,30-Sep-21,1.129,1.117,1.274641,1.247689
10:17:16,30-Sep-21,1.134,1.117,1.285956,1.247689
10:17:16,30-Sep-21,1.134,1.118,1.285956,1.249924
10:17:16,30-Sep-21,1.134,1.118,1.285956,1.249924
10:17:16,30-Sep-21,1.134,1.118,1.285956,1.249924
10:17:16,30-Sep-21,1.134,1.118,1.285956,1.249924
10:17:16,30-Sep-21,1.134,1.118,1.285956,1.249924
10:17:16,30-Sep-21,1.134,1.119,1.285956,1.252161
10:17:16,30-Sep-21,1.1195,1.118,1.25328025,1.249924
10:17:16,30-Sep-21,1.1195,1.118,1.25328025,1.249924
10:17:16,30-Sep-21,1.1195,1.118,1.25328025,1.249924
10:17:16,30-Sep-21,1.1195,1.118,1.25328025,1.249924
10:17:16,30-Sep-21,1.1195,1.118,1.25328025,1.249924
10:17:16,30-Sep-21,1.1195,1.117,1.25328025,1.247689
10:17:16,30-Sep-21,1.1195,1.117,1.25328025,1.247689
10:17:16,30-Sep-21,1.1195,1.117,1.25328025,1.247689
10:17:16,30-Sep-21,1.1195,1.117,1.25328025,1.247689
10:17:16,30-Sep-21,1.1095,1.116,1.23099025,1.245456
10:17:16,30-Sep-21,1.1095,1.116,1.23099025,1.245456
10:17:16,30-Sep-21,1.1095,1.116,1.23099025,1.245456
10:17:16,30-Sep-21,1.1095,1.116,1.23099025,1.245456
10:17:16,30-Sep-21,1.1095,1.116,1.23099025,1.245456
10:17:16,30-Sep-21,1.1095,1.116,1.23099025,1.245456
10:17:16,30-Sep-21,1.1095,1.116,1.23099025,1.245456
10:17:16,30-Sep-21,1.1095,1.116,1.23099025,1.245456
10:17:16,30-Sep-21,1.1095,1.116,1.23099025,1.245456
10:17:16,30-Sep-21,1.1095,1.116,1.23099025,1.245456
10:17:16,30-Sep-21,1.1095,1.117,1.23099025,1.247689
10:17:16,30-Sep-21,1.1095,1.117,1.23099025,1.247689
10:17:16,30-Sep-21,1.1095,1.118,1.23099025,1.249924
10:17:16,30-Sep-21,1.1095,1.119,1.23099025,1.252161
10:17:16,30-Sep-21,1.1095,1.12,1.23099025,1.2544
10:17:16,30-Sep-21,1.1095,1.12,1.23099025,1.2544
10:17:16,30-Sep-21,1.1095,1.121,1.23099025,1.256641
10:17:16,30-Sep-21,1.124,1.122,1.263376,1.258884
10:17:16,30-Sep-21,1.124,1.123,1.263376,1.261129
10:17:16,30-Sep-21,1.124,1.125,1.263376,1.265625
10:17:16,30-Sep-21,1.124,1.126,1.263376,1.267876
10:17:16,30-Sep-21,1.124,1.127,1.263376,1.270129
10:17:16,30-Sep-21,1.134,1.128,1.285956,1.272384
10:17:16,30-Sep-21,1.134,1.129,1.285956,1.274641
10:17:16,30-Sep-21,1.134,1.13,1.285956,1.2769
10:17:16,30-Sep-21,1.134,1.132,1.285956,1.281424
10:17:16,30-Sep-21,1.134,1.133,1.285956,1.283689
10:17:16,30-Sep-21,1.134,1.134,1.285956,1.285956
10:17:16,30-Sep-21,1.134,1.135,1.285956,1.288225
10:17:16,30-Sep-21,1.134,1.136,1.285956,1.290496
10:17:16,30-Sep-21,1.1535,1.136,1.33056225,1.290496
10:17:16,30-Sep-21,1.1535,1.137,1.33056225,1.292769
10:17:16,30-Sep-21,1.1535,1.138,1.33056225,1.295044
10:17:16,30-Sep-21,1.1535,1.139,1.33056225,1.297321
10:17:16,30-Sep-21,1.1585,1.139,1.34212225,1.297321
10:17:16,30-Sep-21,1.1585,1.14,1.34212225,1.2996
10:17:16,30-Sep-21,1.1585,1.14,1.34212225,1.2996
10:17:16,30-Sep-21,1.1535,1.141,1.33056225,1.301881
10:17:16,30-Sep-21,1.1535,1.141,1.33056225,1.301881
10:17:16,30-Sep-21,1.1535,1.141,1.33056225,1.301881
10:17:16,30-Sep-21,1.1485,1.142,1.31905225,1.304164
10:17:16,30-Sep-21,1.1485,1.142,1.31905225,1.304164
10:17:16,30-Sep-21,1.134,1.143,1.285956,1.306449
10:17:16,30-Sep-21,1.134,1.143,1.285956,1.306449
10:17:16,30-Sep-21,1.134,1.144,1.285956,1.308736
10:17:16,30-Sep-21,1.134,1.144,1.285956,1.308736
10:17:16,30-Sep-21,1.134,1.145,1.285956,1.311025
10:17:16,30-Sep-21,1.129,1.146,1.274641,1.313316
10:17:16,30-Sep-21,1.129,1.147,1.274641,1.315609
10:17:16,30-Sep-21,1.129,1.148,1.274641,1.317904
10:17:16,30-Sep-21,1.129,1.149,1.274641,1.320201
10:17:16,30-Sep-21,1.129,1.151,1.274641,1.324801
10:17:16,30-Sep-21,1.134,1.152,1.285956,1.327104
10:17:16,30-Sep-21,1.134,1.154,1.285956,1.331716
10:17:16,30-Sep-21,1.134,1.155,1.285956,1.334025
10:17:16,30-Sep-21,1.1435,1.157,1.30759225,1.338649
10:17:16,30-Sep-21,1.1435,1.159,1.30759225,1.343281
10:17:16,30-Sep-21,1.1435,1.161,1.30759225,1.347921
10:17:16,30-Sep-21,1.1435,1.163,1.30759225,1.352569
10:17:16,30-Sep-21,1.173,1.165,1.375929,1.357225
10:17:16,30-Sep-21,1.173,1.167,1.375929,1.361889
10:17:16,30-Sep-21,1.1875,1.169,1.41015625,1.366561
10:17:16,30-Sep-21,1.1875,1.171,1.41015625,1.371241
10:17:16,30-Sep-21,1.1875,1.173,1.41015625,1.375929
10:17:16,30-Sep-21,1.2025,1.175,1.44600625,1.380625
10:17:16,30-Sep-21,1.2025,1.177,1.44600625,1.385329
10:17:16,30-Sep-21,1.207,1.178,1.456849,1.387684
10:17:16,30-Sep-21,1.207,1.18,1.456849,1.3924
10:17:16,30-Sep-21,1.207,1.182,1.456849,1.397124
10:17:16,30-Sep-21,1.1925,1.183,1.42205625,1.399489
10:17:16,30-Sep-21,1.1925,1.185,1.42205625,1.404225
10:17:16,30-Sep-21,1.1925,1.186,1.42205625,1.406596
10:17:16,30-Sep-21,1.1925,1.187,1.42205625,1.408969
10:17:16,30-Sep-21,1.1925,1.188,1.42205625,1.411344
10:17:16,30-Sep-21,1.1925,1.189,1.42205625,1.413721
10:17:16,30-Sep-21,1.1925,1.19,1.42205625,1.4161
10:17:16,30-Sep-21,1.1875,1.191,1.41015625,1.418481
10:17:16,30-Sep-21,1.1875,1.191,1.41015625,1.418481
10:17:16,30-Sep-21,1.173,1.192,1.375929,1.420864
10:17:16,30-Sep-21,1.173,1.192,1.375929,1.420864
10:17:16,30-Sep-21,1.173,1.193,1.375929,1.423249
10:17:16,30-Sep-21,1.173,1.193,1.375929,1.423249
10:17:16,30-Sep-21,1.173,1.194,1.375929,1.425636
10:17:16,30-Sep-21,1.173,1.194,1.375929,1.425636
10:17:16,30-Sep-21,1.183,1.194,1.399489,1.425636
10:17:16,30-Sep-21,1.183,1.194,1.399489,1.425636
10:17:16,30-Sep-21,1.183,1.195,1.399489,1.428025
10:17:16,30-Sep-21,1.183,1.195,1.399489,1.428025
10:17:16,30-Sep-21,1.1875,1.195,1.41015625,1.428025
10:17:16,30-Sep-21,1.1875,1.195,1.41015625,1.428025
10:17:16,30-Sep-21,1.212,1.195,1.468944,1.428025
10:17:16,30-Sep-21,1.212,1.195,1.468944,1.428025
10:17:16,30-Sep-21,1.212,1.195,1.468944,1.428025
10:17:16,30-Sep-21,1.212,1.195,1.468944,1.428025
10:17:16,30-Sep-21,1.212,1.194,1.468944,1.425636
10:17:16,30-Sep-21,1.212,1.194,1.468944,1.425636
10:17:16,30-Sep-21,1.212,1.194,1.468944,1.425636
10:17:16,30-Sep-21,1.212,1.193,1.468944,1.423249
10:17:16,30-Sep-21,1.207,1.193,1.456849,1.423249
10:17:16,30-Sep-21,1.207,1.193,1.456849,1.423249
10:17:16,30-Sep-21,1.2025,1.192,1.44600625,1.420864
10:17:16,30-Sep-21,1.2025,1.192,1.44600625,1.420864
10:17:16,30-Sep-21,1.2025,1.191,1.44600625,1.418481
10:17:16,30-Sep-21,1.183,1.191,1.399489,1.418481
10:17:16,30-Sep-21,1.183,1.19,1.399489,1.4161
10:17:16,30-Sep-21,1.178,1.19,1.387684,1.4161
10:17:16,30-Sep-21,1.178,1.19,1.387684,1.4161
10:17:16,30-Sep-21,1.178,1.19,1.387684,1.4161
10:17:16,30-Sep-21,1.178,1.19,1.387684,1.4161
10:17:16,30-Sep-21,1.178,1.19,1.387684,1.4161
10:17:16,30-Sep-21,1.173,1.19,1.375929,1.4161
10:17:16,30-Sep-21,1.173,1.19,1.375929,1.4161
10:17:16,30-Sep-21,1.168,1.191,1.364224,1.418481
10:17:16,30-Sep-21,1.168,1.191,1.364224,1.418481
10:17:16,30-Sep-21,1.168,1.192,1.364224,1.420864
10:17:16,30-Sep-21,1.173,1.192,1.375929,1.420864
10:17:16,30-Sep-21,1.173,1.193,1.375929,1.423249
10:17:16,30-Sep-21,1.2025,1.194,1.44600625,1.425636
10:17:16,30-Sep-21,1.2025,1.195,1.44600625,1.428025
10:17:16,30-Sep-21,1.2025,1.196,1.44600625,1.430416
10:17:16,30-Sep-21,1.212,1.197,1.468944,1.432809
10:17:16,30-Sep-21,1.212,1.199,1.468944,1.437601
10:17:16,30-Sep-21,1.212,1.2,1.468944,1.44
10:17:16,30-Sep-21,1.212,1.201,1.468944,1.442401
10:17:16,30-Sep-21,1.222,1.203,1.493284,1.447209
10:17:16,30-Sep-21,1.222,1.204,1.493284,1.449616
10:17:16,30-Sep-21,1.222,1.205,1.493284,1.452025
10:17:16,30-Sep-21,1.222,1.207,1.493284,1.456849
10:17:16,30-Sep-21,1.222,1.208,1.493284,1.459264
10:17:16,30-Sep-21,1.217,1.21,1.481089,1.4641
10:17:16,30-Sep-21,1.222,1.212,1.493284,1.468944
10:17:16,30-Sep-21,1.222,1.213,1.493284,1.471369
10:17:16,30-Sep-21,1.222,1.215,1.493284,1.476225
10:17:16,30-Sep-21,1.222,1.217,1.493284,1.481089
10:17:16,30-Sep-21,1.222,1.218,1.493284,1.483524
10:17:16,30-Sep-21,1.207,1.22,1.456849,1.4884
10:17:16,30-Sep-21,1.207,1.222,1.456849,1.493284
10:17:16,30-Sep-21,1.207,1.224,1.456849,1.498176
10:17:16,30-Sep-21,1.207,1.226,1.456849,1.503076
10:17:16,30-Sep-21,1.207,1.228,1.456849,1.507984
10:17:16,30-Sep-21,1.217,1.23,1.481089,1.5129
10:17:16,30-Sep-21,1.217,1.232,1.481089,1.517824
10:17:16,30-Sep-21,1.217,1.235,1.481089,1.525225
10:17:16,30-Sep-21,1.2315,1.237,1.51659225,1.530169
10:17:16,30-Sep-21,1.2315,1.239,1.51659225,1.535121
10:17:16,30-Sep-21,1.2315,1.242,1.51659225,1.542564
10:17:16,30-Sep-21,1.261,1.244,1.590121,1.547536
10:17:16,30-Sep-21,1.261,1.247,1.590121,1.555009
10:17:16,30-Sep-21,1.261,1.25,1.590121,1.5625
10:17:17,30-Sep-21,1.261,1.252,1.590121,1.567504
10:17:17,30-Sep-21,1.271,1.255,1.615441,1.575025
10:17:17,30-Sep-21,1.271,1.258,1.615441,1.582564
10:17:17,30-Sep-21,1.271,1.26,1.615441,1.5876
10:17:17,30-Sep-21,1.271,1.263,1.615441,1.595169
10:17:17,30-Sep-21,1.271,1.266,1.615441,1.602756
10:17:17,30-Sep-21,1.271,1.269,1.615441,1.610361
10:17:17,30-Sep-21,1.271,1.271,1.615441,1.615441
10:17:17,30-Sep-21,1.2805,1.274,1.63968025,1.623076
10:17:17,30-Sep-21,1.2805,1.277,1.63968025,1.630729
10:17:17,30-Sep-21,1.2755,1.279,1.62690025,1.635841
10:17:17,30-Sep-21,1.2755,1.282,1.62690025,1.643524
10:17:17,30-Sep-21,1.2755,1.285,1.62690025,1.651225
10:17:17,30-Sep-21,1.2805,1.287,1.63968025,1.656369
10:17:17,30-Sep-21,1.2805,1.29,1.63968025,1.6641
10:17:17,30-Sep-21,1.2805,1.292,1.63968025,1.669264
10:17:17,30-Sep-21,1.2805,1.295,1.63968025,1.677025
10:17:17,30-Sep-21,1.2805,1.297,1.63968025,1.682209
10:17:17,30-Sep-21,1.2805,1.299,1.63968025,1.687401
10:17:17,30-Sep-21,1.2805,1.301,1.63968025,1.692601
10:17:17,30-Sep-21,1.2805,1.303,1.63968025,1.697809
10:17:17,30-Sep-21,1.2905,1.305,1.66539025,1.703025
10:17:17,30-Sep-21,1.2905,1.307,1.66539025,1.708249
10:17:17,30-Sep-21,1.2905,1.308,1.66539025,1.710864
10:17:17,30-Sep-21,1.315,1.309,1.729225,1.713481
10:17:17,30-Sep-21,1.315,1.31,1.729225,1.7161
10:17:17,30-Sep-21,1.315,1.311,1.729225,1.718721
10:17:17,30-Sep-21,1.3295,1.311,1.76757025,1.718721
10:17:17,30-Sep-21,1.3295,1.311,1.76757025,1.718721
10:17:17,30-Sep-21,1.3295,1.311,1.76757025,1.718721
10:17:17,30-Sep-21,1.3295,1.311,1.76757025,1.718721
10:17:17,30-Sep-21,1.339,1.31,1.792921,1.7161
10:17:17,30-Sep-21,1.339,1.309,1.792921,1.713481
10:17:17,30-Sep-21,1.339,1.308,1.792921,1.710864
10:17:17,30-Sep-21,1.3195,1.306,1.74108025,1.705636
10:17:17,30-Sep-21,1.3195,1.304,1.74108025,1.700416
10:17:17,30-Sep-21,1.3195,1.302,1.74108025,1.695204
10:17:17,30-Sep-21,1.3195,1.299,1.74108025,1.687401
10:17:17,30-Sep-21,1.3195,1.296,1.74108025,1.679616
10:17:17,30-Sep-21,1.3195,1.293,1.74108025,1.671849
10:17:17,30-Sep-21,1.3,1.29,1.69,1.6641
10:17:17,30-Sep-21,1.3,1.287,1.69,1.656369
10:17:17,30-Sep-21,1.2755,1.284,1.62690025,1.648656
10:17:17,30-Sep-21,1.2755,1.28,1.62690025,1.6384
10:17:17,30-Sep-21,1.2755,1.277,1.62690025,1.630729
10:17:17,30-Sep-21,1.256,1.273,1.577536,1.620529
10:17:17,30-Sep-21,1.256,1.27,1.577536,1.6129
10:17:17,30-Sep-21,1.256,1.266,1.577536,1.602756
10:17:17,30-Sep-21,1.2315,1.263,1.51659225,1.595169
10:17:17,30-Sep-21,1.2315,1.26,1.51659225,1.5876
10:17:17,30-Sep-21,1.2315,1.257,1.51659225,1.580049
10:17:17,30-Sep-21,1.2315,1.254,1.51659225,1.572516
10:17:17,30-Sep-21,1.2315,1.251,1.51659225,1.565001
10:17:17,30-Sep-21,1.2315,1.249,1.51659225,1.560001
10:17:17,30-Sep-21,1.222,1.246,1.493284,1.552516
10:17:17,30-Sep-21,1.222,1.244,1.493284,1.547536
10:17:17,30-Sep-21,1.222,1.242,1.493284,1.542564
10:17:17,30-Sep-21,1.222,1.24,1.493284,1.5376
10:17:17,30-Sep-21,1.222,1.239,1.493284,1.535121
10:17:17,30-Sep-21,1.222,1.237,1.493284,1.530169
10:17:17,30-Sep-21,1.222,1.236,1.493284,1.527696
10:17:17,30-Sep-21,1.222,1.234,1.493284,1.522756
10:17:17,30-Sep-21,1.2465,1.233,1.55376225,1.520289
10:17:17,30-Sep-21,1.2465,1.232,1.55376225,1.517824
10:17:17,30-Sep-21,1.2465,1.231,1.55376225,1.515361
10:17:17,30-Sep-21,1.2465,1.231,1.55376225,1.515361
10:17:17,30-Sep-21,1.2465,1.23,1.55376225,1.5129
10:17:17,30-Sep-21,1.2465,1.229,1.55376225,1.510441
10:17:17,30-Sep-21,1.2465,1.228,1.55376225,1.507984
10:17:17,30-Sep-21,1.2465,1.227,1.55376225,1.505529
10:17:17,30-Sep-21,1.2465,1.226,1.55376225,1.503076
10:17:17,30-Sep-21,1.2465,1.225,1.55376225,1.500625
10:17:17,30-Sep-21,1.2465,1.224,1.55376225,1.498176
10:17:17,30-Sep-21,1.2465,1.223,1.55376225,1.495729
10:17:17,30-Sep-21,1.2365,1.222,1.52893225,1.493284
10:17:17,30-Sep-21,1.2365,1.221,1.52893225,1.490841
10:17:17,30-Sep-21,1.2365,1.22,1.52893225,1.4884
10:17:17,30-Sep-21,1.227,1.219,1.505529,1.485961
10:17:17,30-Sep-21,1.227,1.218,1.505529,1.483524
10:17:17,30-Sep-21,1.227,1.217,1.505529,1.481089
10:17:17,30-Sep-21,1.207,1.216,1.456849,1.478656
10:17:17,30-Sep-21,1.207,1.215,1.456849,1.476225
10:17:17,30-Sep-21,1.207,1.214,1.456849,1.473796
10:17:17,30-Sep-21,1.1975,1.213,1.43400625,1.471369
10:17:17,30-Sep-21,1.1975,1.212,1.43400625,1.468944
10:17:17,30-Sep-21,1.1975,1.211,1.43400625,1.466521
10:17:17,30-Sep-21,1.1975,1.21,1.43400625,1.4641
10:17:17,30-Sep-21,1.1975,1.209,1.43400625,1.461681
10:17:17,30-Sep-21,1.1975,1.209,1.43400625,1.461681
10:17:17,30-Sep-21,1.1875,1.208,1.41015625,1.459264
10:17:17,30-Sep-21,1.1875,1.208,1.41015625,1.459264
10:17:17,30-Sep-21,1.1875,1.208,1.41015625,1.459264
10:17:17,30-Sep-21,1.1875,1.208,1.41015625,1.459264
10:17:17,30-Sep-21,1.1875,1.208,1.41015625,1.459264
10:17:17,30-Sep-21,1.1875,1.208,1.41015625,1.459264
10:17:17,30-Sep-21,1.212,1.208,1.468944,1.459264
10:17:17,30-Sep-21,1.212,1.208,1.468944,1.459264
10:17:17,30-Sep-21,1.212,1.208,1.468944,1.459264
10:17:17,30-Sep-21,1.217,1.209,1.481089,1.461681
10:17:17,30-Sep-21,1.217,1.209,1.481089,1.461681
10:17:17,30-Sep-21,1.217,1.21,1.481089,1.4641
10:17:17,30-Sep-21,1.217,1.21,1.481089,1.4641
10:17:17,30-Sep-21,1.217,1.21,1.481089,1.4641
10:17:17,30-Sep-21,1.217,1.211,1.481089,1.466521
10:17:17,30-Sep-21,1.222,1.211,1.493284,1.466521
10:17:17,30-Sep-21,1.222,1.212,1.493284,1.468944
10:17:17,30-Sep-21,1.222,1.212,1.493284,1.468944
10:17:17,30-Sep-21,1.227,1.212,1.505529,1.468944
10:17:17,30-Sep-21,1.227,1.213,1.505529,1.471369
10:17:17,30-Sep-21,1.227,1.213,1.505529,1.471369
10:17:17,30-Sep-21,1.222,1.213,1.493284,1.471369
10:17:17,30-Sep-21,1.222,1.213,1.493284,1.471369
10:17:17,30-Sep-21,1.222,1.213,1.493284,1.471369
10:17:17,30-Sep-21,1.217,1.213,1.481089,1.471369
10:17:17,30-Sep-21,1.217,1.213,1.481089,1.471369
10:17:17,30-Sep-21,1.217,1.213,1.481089,1.471369
10:17:17,30-Sep-21,1.217,1.213,1.481089,1.471369
10:17:17,30-Sep-21,1.217,1.214,1.481089,1.473796
10:17:17,30-Sep-21,1.212,1.214,1.468944,1.473796
10:17:17,30-Sep-21,1.212,1.214,1.468944,1.473796
10:17:17,30-Sep-21,1.212,1.214,1.468944,1.473796
10:17:17,30-Sep-21,1.2025,1.214,1.44600625,1.473796
10:17:17,30-Sep-21,1.2025,1.214,1.44600625,1.473796
10:17:17,30-Sep-21,1.2025,1.214,1.44600625,1.473796
10:17:17,30-Sep-21,1.2025,1.214,1.44600625,1.473796
10:17:17,30-Sep-21,1.2025,1.215,1.44600625,1.476225
10:17:17,30-Sep-21,1.2025,1.215,1.44600625,1.476225
10:17:17,30-Sep-21,1.2025,1.215,1.44600625,1.476225
10:17:17,30-Sep-21,1.2025,1.216,1.44600625,1.478656
10:17:17,30-Sep-21,1.2025,1.216,1.44600625,1.478656
10:17:17,30-Sep-21,1.2025,1.217,1.44600625,1.481089
10:17:17,30-Sep-21,1.2025,1.217,1.44600625,1.481089
10:17:17,30-Sep-21,1.2025,1.218,1.44600625,1.483524
10:17:17,30-Sep-21,1.212,1.219,1.468944,1.485961
10:17:17,30-Sep-21,1.222,1.219,1.493284,1.485961
10:17:17,30-Sep-21,1.222,1.22,1.493284,1.4884
10:17:17,30-Sep-21,1.222,1.221,1.493284,1.490841
10:17:17,30-Sep-21,1.222,1.221,1.493284,1.490841
10:17:17,30-Sep-21,1.222,1.222,1.493284,1.493284
10:17:17,30-Sep-21,1.2415,1.222,1.54132225,1.493284
10:17:17,30-Sep-21,1.2415,1.223,1.54132225,1.495729
10:17:17,30-Sep-21,1.2415,1.223,1.54132225,1.495729
10:17:17,30-Sep-21,1.2415,1.223,1.54132225,1.495729
10:17:17,30-Sep-21,1.2415,1.224,1.54132225,1.498176
10:17:17,30-Sep-21,1.2415,1.224,1.54132225,1.498176
10:17:17,30-Sep-21,1.2365,1.224,1.52893225,1.498176
10:17:17,30-Sep-21,1.2365,1.224,1.52893225,1.498176
10:17:17,30-Sep-21,1.2365,1.224,1.52893225,1.498176
10:17:17,30-Sep-21,1.2365,1.224,1.52893225,1.498176
10:17:17,30-Sep-21,1.2365,1.224,1.52893225,1.498176
10:17:17,30-Sep-21,1.2315,1.224,1.51659225,1.498176
10:17:17,30-Sep-21,1.2315,1.224,1.51659225,1.498176
10:17:17,30-Sep-21,1.2315,1.224,1.51659225,1.498176
10:17:17,30-Sep-21,1.2315,1.223,1.51659225,1.495729
10:17:17,30-Sep-21,1.217,1.223,1.481089,1.495729
10:17:17,30-Sep-21,1.217,1.223,1.481089,1.495729
10:17:17,30-Sep-21,1.217,1.223,1.481089,1.495729
10:17:17,30-Sep-21,1.212,1.223,1.468944,1.495729
10:17:17,30-Sep-21,1.212,1.223,1.468944,1.495729
10:17:17,30-Sep-21,1.1975,1.224,1.43400625,1.498176
10:17:17,30-Sep-21,1.1975,1.224,1.43400625,1.498176
10:17:17,30-Sep-21,1.1975,1.224,1.43400625,1.498176
10:17:17,30-Sep-21,1.1975,1.225,1.43400625,1.500625
10:17:17,30-Sep-21,1.1975,1.225,1.43400625,1.500625
10:17:17,30-Sep-21,1.1975,1.226,1.43400625,1.503076
10:17:17,30-Sep-21,1.207,1.226,1.456849,1.503076
10:17:17,30-Sep-21,1.207,1.227,1.456849,1.505529
10:17:17,30-Sep-21,1.207,1.228,1.456849,1.507984
10:17:17,30-Sep-21,1.217,1.228,1.481089,1.507984
10:17:17,30-Sep-21,1.217,1.229,1.481089,1.510441
10:17:17,30-Sep-21,1.2465,1.23,1.55376225,1.5129
10:17:17,30-Sep-21,1.2465,1.231,1.55376225,1.515361
10:17:17,30-Sep-21,1.256,1.231,1.577536,1.515361
10:17:17,30-Sep-21,1.256,1.232,1.577536,1.517824
10:17:17,30-Sep-21,1.256,1.233,1.577536,1.520289
10:17:17,30-Sep-21,1.266,1.233,1.602756,1.520289
10:17:17,30-Sep-21,1.266,1.234,1.602756,1.522756
10:17:17,30-Sep-21,1.266,1.234,1.602756,1.522756
10:17:17,30-Sep-21,1.266,1.234,1.602756,1.522756
10:17:18,30-Sep-21,1.261,1.234,1.590121,1.522756
10:17:18,30-Sep-21,1.261,1.234,1.590121,1.522756
10:17:18,30-Sep-21,1.2415,1.234,1.54132225,1.522756
10:17:18,30-Sep-21,1.2415,1.234,1.54132225,1.522756
10:17:18,30-Sep-21,1.2415,1.234,1.54132225,1.522756
10:17:18,30-Sep-21,1.2315,1.233,1.51659225,1.520289
10:17:18,30-Sep-21,1.2315,1.233,1.51659225,1.520289
10:17:18,30-Sep-21,1.212,1.233,1.468944,1.520289
10:17:18,30-Sep-21,1.212,1.232,1.468944,1.517824
10:17:18,30-Sep-21,1.212,1.232,1.468944,1.517824
10:17:18,30-Sep-21,1.2025,1.231,1.44600625,1.515361
10:17:18,30-Sep-21,1.2025,1.231,1.44600625,1.515361
10:17:18,30-Sep-21,1.2025,1.23,1.44600625,1.5129
10:17:18,30-Sep-21,1.2025,1.23,1.44600625,1.5129
10:17:18,30-Sep-21,1.2025,1.23,1.44600625,1.5129
10:17:18,30-Sep-21,1.2025,1.229,1.44600625,1.510441
10:17:18,30-Sep-21,1.212,1.229,1.468944,1.510441
10:17:18,30-Sep-21,1.212,1.228,1.468944,1.507984
10:17:18,30-Sep-21,1.222,1.228,1.493284,1.507984
10:17:18,30-Sep-21,1.222,1.228,1.493284,1.507984
10:17:18,30-Sep-21,1.222,1.227,1.493284,1.505529
10:17:18,30-Sep-21,1.251,1.227,1.565001,1.505529
10:17:18,30-Sep-21,1.251,1.226,1.565001,1.503076
10:17:18,30-Sep-21,1.256,1.226,1.577536,1.503076
10:17:18,30-Sep-21,1.256,1.225,1.577536,1.500625
10:17:18,30-Sep-21,1.256,1.225,1.577536,1.500625
10:17:18,30-Sep-21,1.256,1.224,1.577536,1.498176
10:17:18,30-Sep-21,1.2415,1.223,1.54132225,1.495729
10:17:18,30-Sep-21,1.2415,1.223,1.54132225,1.495729
10:17:18,30-Sep-21,1.2415,1.222,1.54132225,1.493284
10:17:18,30-Sep-21,1.2315,1.221,1.51659225,1.490841
10:17:18,30-Sep-21,1.2315,1.221,1.51659225,1.490841
10:17:18,30-Sep-21,1.2315,1.22,1.51659225,1.4884
10:17:18,30-Sep-21,1.212,1.219,1.468944,1.485961
10:17:18,30-Sep-21,1.212,1.218,1.468944,1.483524
10:17:18,30-Sep-21,1.212,1.218,1.468944,1.483524
10:17:18,30-Sep-21,1.2025,1.217,1.44600625,1.481089
10:17:18,30-Sep-21,1.2025,1.217,1.44600625,1.481089
10:17:18,30-Sep-21,1.2025,1.216,1.44600625,1.478656
10:17:18,30-Sep-21,1.2025,1.216,1.44600625,1.478656
10:17:18,30-Sep-21,1.2025,1.216,1.44600625,1.478656
10:17:18,30-Sep-21,1.1975,1.216,1.43400625,1.478656
10:17:18,30-Sep-21,1.1975,1.216,1.43400625,1.478656
10:17:18,30-Sep-21,1.1975,1.216,1.43400625,1.478656
10:17:18,30-Sep-21,1.1975,1.216,1.43400625,1.478656
10:17:18,30-Sep-21,1.1975,1.216,1.43400625,1.478656
10:17:18,30-Sep-21,1.1975,1.217,1.43400625,1.481089
10:17:18,30-Sep-21,1.2025,1.217,1.44600625,1.481089
10:17:18,30-Sep-21,1.2025,1.218,1.44600625,1.483524
10:17:18,30-Sep-21,1.2025,1.218,1.44600625,1.483524
10:17:18,30-Sep-21,1.227,1.219,1.505529,1.485961
10:17:18,30-Sep-21,1.227,1.22,1.505529,1.4884
10:17:18,30-Sep-21,1.227,1.22,1.505529,1.4884
10:17:18,30-Sep-21,1.227,1.221,1.505529,1.490841
10:17:18,30-Sep-21,1.2365,1.222,1.52893225,1.493284
10:17:18,30-Sep-21,1.2365,1.222,1.52893225,1.493284
10:17:18,30-Sep-21,1.2365,1.223,1.52893225,1.495729
10:17:18,30-Sep-21,1.2365,1.223,1.52893225,1.495729
10:17:18,30-Sep-21,1.2365,1.224,1.52893225,1.498176
10:17:18,30-Sep-21,1.2415,1.224,1.54132225,1.498176
10:17:18,30-Sep-21,1.2415,1.224,1.54132225,1.498176
10:17:18,30-Sep-21,1.2415,1.225,1.54132225,1.500625
10:17:18,30-Sep-21,1.2415,1.225,1.54132225,1.500625
10:17:18,30-Sep-21,1.2415,1.225,1.54132225,1.500625
10:17:18,30-Sep-21,1.2415,1.225,1.54132225,1.500625
10:17:18,30-Sep-21,1.2315,1.224,1.51659225,1.498176
10:17:18,30-Sep-21,1.2315,1.224,1.51659225,1.498176
10:17:18,30-Sep-21,1.222,1.224,1.493284,1.498176
10:17:18,30-Sep-21,1.222,1.223,1.493284,1.495729
10:17:18,30-Sep-21,1.222,1.223,1.493284,1.495729
10:17:18,30-Sep-21,1.222,1.222,1.493284,1.493284
10:17:18,30-Sep-21,1.222,1.222,1.493284,1.493284
10:17:18,30-Sep-21,1.217,1.221,1.481089,1.490841
10:17:18,30-Sep-21,1.217,1.221,1.481089,1.490841
10:17:18,30-Sep-21,1.2025,1.221,1.44600625,1.490841
10:17:18,30-Sep-21,1.2025,1.22,1.44600625,1.4884
10:17:18,30-Sep-21,1.2025,1.22,1.44600625,1.4884
10:17:18,30-Sep-21,1.1975,1.219,1.43400625,1.485961
10:17:18,30-Sep-21,1.1975,1.219,1.43400625,1.485961
10:17:18,30-Sep-21,1.2025,1.219,1.44600625,1.485961
10:17:18,30-Sep-21,1.2025,1.218,1.44600625,1.483524
10:17:18,30-Sep-21,1.2025,1.218,1.44600625,1.483524
10:17:18,30-Sep-21,1.212,1.218,1.468944,1.483524
10:17:18,30-Sep-21,1.212,1.218,1.468944,1.483524
10:17:18,30-Sep-21,1.212,1.218,1.468944,1.483524
10:17:18,30-Sep-21,1.212,1.218,1.468944,1.483524
10:17:18,30-Sep-21,1.2315,1.218,1.51659225,1.483524
10:17:18,30-Sep-21,1.2315,1.218,1.51659225,1.483524
10:17:18,30-Sep-21,1.2365,1.218,1.52893225,1.483524
10:17:18,30-Sep-21,1.2365,1.218,1.52893225,1.483524
10:17:18,30-Sep-21,1.2365,1.218,1.52893225,1.483524
10:17:18,30-Sep-21,1.2315,1.218,1.51659225,1.483524
10:17:18,30-Sep-21,1.2315,1.219,1.51659225,1.485961
10:17:18,30-Sep-21,1.2315,1.219,1.51659225,1.485961
10:17:18,30-Sep-21,1.2315,1.219,1.51659225,1.485961
10:17:18,30-Sep-21,1.2315,1.219,1.51659225,1.485961
10:17:18,30-Sep-21,1.227,1.219,1.505529,1.485961
10:17:18,30-Sep-21,1.227,1.219,1.505529,1.485961
10:17:18,30-Sep-21,1.227,1.219,1.505529,1.485961
10:17:18,30-Sep-21,1.227,1.22,1.505529,1.4884
10:17:18,30-Sep-21,1.212,1.22,1.468944,1.4884
10:17:18,30-Sep-21,1.212,1.22,1.468944,1.4884
10:17:18,30-Sep-21,1.212,1.22,1.468944,1.4884
10:17:18,30-Sep-21,1.207,1.221,1.456849,1.490841
10:17:18,30-Sep-21,1.207,1.221,1.456849,1.490841
10:17:18,30-Sep-21,1.2025,1.222,1.44600625,1.493284
10:17:18,30-Sep-21,1.2025,1.222,1.44600625,1.493284
10:17:18,30-Sep-21,1.2025,1.222,1.44600625,1.493284
10:17:18,30-Sep-21,1.2025,1.223,1.44600625,1.495729
10:17:18,30-Sep-21,1.2025,1.223,1.44600625,1.495729
10:17:18,30-Sep-21,1.2025,1.224,1.44600625,1.498176
10:17:18,30-Sep-21,1.2025,1.225,1.44600625,1.500625
10:17:18,30-Sep-21,1.227,1.225,1.505529,1.500625
10:17:18,30-Sep-21,1.227,1.226,1.505529,1.503076
10:17:18,30-Sep-21,1.2365,1.226,1.52893225,1.503076
10:17:18,30-Sep-21,1.2365,1.227,1.52893225,1.505529
10:17:18,30-Sep-21,1.2465,1.227,1.55376225,1.505529
10:17:18,30-Sep-21,1.2465,1.227,1.55376225,1.505529
10:17:18,30-Sep-21,1.2465,1.228,1.55376225,1.507984
10:17:18,30-Sep-21,1.2415,1.228,1.54132225,1.507984
10:17:18,30-Sep-21,1.2415,1.228,1.54132225,1.507984
10:17:18,30-Sep-21,1.2415,1.228,1.54132225,1.507984
10:17:18,30-Sep-21,1.2415,1.228,1.54132225,1.507984
10:17:18,30-Sep-21,1.2415,1.228,1.54132225,1.507984
10:17:18,30-Sep-21,1.2415,1.228,1.54132225,1.507984
10:17:18,30-Sep-21,1.2415,1.227,1.54132225,1.505529
10:17:18,30-Sep-21,1.2415,1.227,1.54132225,1.505529
10:17:18,30-Sep-21,1.2415,1.227,1.54132225,1.505529
10:17:18,30-Sep-21,1.227,1.226,1.505529,1.503076
10:17:18,30-Sep-21,1.227,1.226,1.505529,1.503076
10:17:18,30-Sep-21,1.227,1.226,1.505529,1.503076
10:17:18,30-Sep-21,1.222,1.225,1.493284,1.500625
10:17:18,30-Sep-21,1.222,1.225,1.493284,1.500625
10:17:18,30-Sep-21,1.222,1.224,1.493284,1.498176
10:17:18,30-Sep-21,1.207,1.224,1.456849,1.498176
10:17:18,30-Sep-21,1.207,1.224,1.456849,1.498176
10:17:18,30-Sep-21,1.2025,1.223,1.44600625,1.495729
10:17:18,30-Sep-21,1.2025,1.223,1.44600625,1.495729
10:17:18,30-Sep-21,1.2025,1.223,1.44600625,1.495729
10:17:18,30-Sep-21,1.2025,1.223,1.44600625,1.495729
10:17:18,30-Sep-21,1.2025,1.223,1.44600625,1.495729
10:17:18,30-Sep-21,1.2025,1.223,1.44600625,1.495729
10:17:18,30-Sep-21,1.207,1.223,1.456849,1.495729
10:17:18,30-Sep-21,1.207,1.223,1.456849,1.495729
10:17:18,30-Sep-21,1.207,1.223,1.456849,1.495729
10:17:18,30-Sep-21,1.217,1.223,1.481089,1.495729
10:17:18,30-Sep-21,1.217,1.223,1.481089,1.495729
10:17:18,30-Sep-21,1.217,1.223,1.481089,1.495729
10:17:18,30-Sep-21,1.2415,1.223,1.54132225,1.495729
10:17:18,30-Sep-21,1.2415,1.223,1.54132225,1.495729
10:17:18,30-Sep-21,1.2465,1.223,1.55376225,1.495729
10:17:18,30-Sep-21,1.2465,1.223,1.55376225,1.495729
10:17:18,30-Sep-21,1.2465,1.223,1.55376225,1.495729
10:17:18,30-Sep-21,1.2465,1.223,1.55376225,1.495729
10:17:18,30-Sep-21,1.2465,1.223,1.55376225,1.495729
10:17:18,30-Sep-21,1.2465,1.223,1.55376225,1.495729
10:17:18,30-Sep-21,1.2465,1.223,1.55376225,1.495729
10:17:18,30-Sep-21,1.2365,1.222,1.52893225,1.493284
10:17:18,30-Sep-21,1.2365,1.222,1.52893225,1.493284
10:17:18,30-Sep-21,1.2365,1.222,1.52893225,1.493284
10:17:18,30-Sep-21,1.227,1.221,1.505529,1.490841
10:17:18,30-Sep-21,1.227,1.221,1.505529,1.490841
10:17:19,30-Sep-21,1.207,1.22,1.456849,1.4884
10:17:19,30-Sep-21,1.207,1.22,1.456849,1.4884
10:17:19,30-Sep-21,1.2025,1.22,1.44600625,1.4884
10:17:19,30-Sep-21,1.2025,1.219,1.44600625,1.485961
10:17:19,30-Sep-21,1.2025,1.219,1.44600625,1.485961
10:17:19,30-Sep-21,1.2025,1.219,1.44600625,1.485961
10:17:19,30-Sep-21,1.2025,1.219,1.44600625,1.485961
10:17:19,30-Sep-21,1.1925,1.219,1.42205625,1.485961
10:17:19,30-Sep-21,1.1925,1.218,1.42205625,1.483524
10:17:19,30-Sep-21,1.1975,1.219,1.43400625,1.485961
10:17:19,30-Sep-21,1.1975,1.219,1.43400625,1.485961
10:17:19,30-Sep-21,1.1975,1.219,1.43400625,1.485961
10:17:19,30-Sep-21,1.222,1.219,1.493284,1.485961
10:17:19,30-Sep-21,1.222,1.219,1.493284,1.485961
10:17:19,30-Sep-21,1.2315,1.22,1.51659225,1.4884
10:17:19,30-Sep-21,1.2315,1.22,1.51659225,1.4884
10:17:19,30-Sep-21,1.2315,1.221,1.51659225,1.490841
10:17:19,30-Sep-21,1.2315,1.221,1.51659225,1.490841
10:17:19,30-Sep-21,1.2315,1.221,1.51659225,1.490841
10:17:19,30-Sep-21,1.2415,1.222,1.54132225,1.493284
10:17:19,30-Sep-21,1.2415,1.223,1.54132225,1.495729
10:17:19,30-Sep-21,1.2415,1.223,1.54132225,1.495729
10:17:19,30-Sep-21,1.2415,1.224,1.54132225,1.498176
10:17:19,30-Sep-21,1.2415,1.224,1.54132225,1.498176
10:17:19,30-Sep-21,1.2415,1.225,1.54132225,1.500625
10:17:19,30-Sep-21,1.2315,1.225,1.51659225,1.500625
10:17:19,30-Sep-21,1.2315,1.226,1.51659225,1.503076
10:17:19,30-Sep-21,1.2315,1.227,1.51659225,1.505529
10:17:19,30-Sep-21,1.227,1.227,1.505529,1.505529
10:17:19,30-Sep-21,1.227,1.228,1.505529,1.507984
10:17:19,30-Sep-21,1.212,1.229,1.468944,1.510441
10:17:19,30-Sep-21,1.212,1.23,1.468944,1.5129
10:17:19,30-Sep-21,1.212,1.23,1.468944,1.5129
10:17:19,30-Sep-21,1.212,1.231,1.468944,1.515361
10:17:19,30-Sep-21,1.212,1.232,1.468944,1.517824
10:17:19,30-Sep-21,1.212,1.233,1.468944,1.520289
10:17:19,30-Sep-21,1.212,1.234,1.468944,1.522756
10:17:19,30-Sep-21,1.217,1.235,1.481089,1.525225
10:17:19,30-Sep-21,1.217,1.236,1.481089,1.527696
10:17:19,30-Sep-21,1.227,1.236,1.505529,1.527696
10:17:19,30-Sep-21,1.227,1.237,1.505529,1.530169
10:17:19,30-Sep-21,1.227,1.238,1.505529,1.532644
10:17:19,30-Sep-21,1.256,1.239,1.577536,1.535121
10:17:19,30-Sep-21,1.256,1.24,1.577536,1.5376
10:17:19,30-Sep-21,1.261,1.24,1.590121,1.5376
10:17:19,30-Sep-21,1.261,1.241,1.590121,1.540081
10:17:19,30-Sep-21,1.261,1.241,1.590121,1.540081
10:17:19,30-Sep-21,1.261,1.242,1.590121,1.542564
10:17:19,30-Sep-21,1.261,1.242,1.590121,1.542564
10:17:19,30-Sep-21,1.261,1.242,1.590121,1.542564
10:17:19,30-Sep-21,1.256,1.242,1.577536,1.542564
10:17:19,30-Sep-21,1.256,1.242,1.577536,1.542564
10:17:19,30-Sep-21,1.256,1.242,1.577536,1.542564
10:17:19,30-Sep-21,1.251,1.242,1.565001,1.542564
10:17:19,30-Sep-21,1.251,1.242,1.565001,1.542564
10:17:19,30-Sep-21,1.2315,1.241,1.51659225,1.540081
10:17:19,30-Sep-21,1.2315,1.241,1.51659225,1.540081
10:17:19,30-Sep-21,1.2315,1.24,1.51659225,1.5376
10:17:19,30-Sep-21,1.2315,1.24,1.51659225,1.5376
10:17:19,30-Sep-21,1.2315,1.239,1.51659225,1.535121
10:17:19,30-Sep-21,1.227,1.239,1.505529,1.535121
10:17:19,30-Sep-21,1.227,1.238,1.505529,1.532644
10:17:19,30-Sep-21,1.217,1.237,1.481089,1.530169
10:17:19,30-Sep-21,1.217,1.236,1.481089,1.527696
10:17:19,30-Sep-21,1.212,1.235,1.468944,1.525225
10:17:19,30-Sep-21,1.212,1.235,1.468944,1.525225
10:17:19,30-Sep-21,1.212,1.234,1.468944,1.522756
10:17:19,30-Sep-21,1.2315,1.233,1.51659225,1.520289
10:17:19,30-Sep-21,1.2315,1.232,1.51659225,1.517824
10:17:19,30-Sep-21,1.2365,1.231,1.52893225,1.515361
10:17:19,30-Sep-21,1.2365,1.23,1.52893225,1.5129
10:17:19,30-Sep-21,1.2365,1.229,1.52893225,1.510441
10:17:19,30-Sep-21,1.2365,1.227,1.52893225,1.505529
10:17:19,30-Sep-21,1.2365,1.226,1.52893225,1.503076
10:17:19,30-Sep-21,1.2415,1.225,1.54132225,1.500625
10:17:19,30-Sep-21,1.2415,1.224,1.54132225,1.498176
10:17:19,30-Sep-21,1.2415,1.223,1.54132225,1.495729
10:17:19,30-Sep-21,1.2365,1.221,1.52893225,1.490841
10:17:19,30-Sep-21,1.2365,1.22,1.52893225,1.4884
10:17:19,30-Sep-21,1.2365,1.219,1.52893225,1.485961
10:17:19,30-Sep-21,1.2365,1.217,1.52893225,1.481089
10:17:19,30-Sep-21,1.2365,1.216,1.52893225,1.478656
10:17:19,30-Sep-21,1.222,1.214,1.493284,1.473796
10:17:19,30-Sep-21,1.222,1.213,1.493284,1.471369
10:17:19,30-Sep-21,1.207,1.212,1.456849,1.468944
10:17:19,30-Sep-21,1.207,1.211,1.456849,1.466521
10:17:19,30-Sep-21,1.1925,1.21,1.42205625,1.4641
10:17:19,30-Sep-21,1.1925,1.209,1.42205625,1.461681
10:17:19,30-Sep-21,1.1925,1.208,1.42205625,1.459264
10:17:19,30-Sep-21,1.1875,1.207,1.41015625,1.456849
10:17:19,30-Sep-21,1.1875,1.206,1.41015625,1.454436
10:17:19,30-Sep-21,1.1875,1.205,1.41015625,1.452025
10:17:19,30-Sep-21,1.1875,1.205,1.41015625,1.452025
10:17:19,30-Sep-21,1.1875,1.205,1.41015625,1.452025
10:17:19,30-Sep-21,1.1875,1.204,1.41015625,1.449616
10:17:19,30-Sep-21,1.1875,1.204,1.41015625,1.449616
10:17:19,30-Sep-21,1.1925,1.204,1.42205625,1.449616
10:17:19,30-Sep-21,1.1925,1.204,1.42205625,1.449616
10:17:19,30-Sep-21,1.2025,1.205,1.44600625,1.452025
10:17:19,30-Sep-21,1.2025,1.205,1.44600625,1.452025
10:17:19,30-Sep-21,1.2025,1.205,1.44600625,1.452025
10:17:19,30-Sep-21,1.222,1.206,1.493284,1.454436
10:17:19,30-Sep-21,1.222,1.206,1.493284,1.454436
10:17:19,30-Sep-21,1.227,1.207,1.505529,1.456849
10:17:19,30-Sep-21,1.227,1.207,1.505529,1.456849
10:17:19,30-Sep-21,1.227,1.208,1.505529,1.459264
10:17:19,30-Sep-21,1.217,1.208,1.481089,1.459264
10:17:19,30-Sep-21,1.217,1.209,1.481089,1.461681
10:17:19,30-Sep-21,1.217,1.209,1.481089,1.461681
10:17:19,30-Sep-21,1.217,1.21,1.481089,1.4641
10:17:19,30-Sep-21,1.217,1.21,1.481089,1.4641
10:17:19,30-Sep-21,1.217,1.21,1.481089,1.4641
10:17:19,30-Sep-21,1.217,1.21,1.481089,1.4641
10:17:19,30-Sep-21,1.1975,1.211,1.43400625,1.466521
10:17:19,30-Sep-21,1.1975,1.211,1.43400625,1.466521
10:17:19,30-Sep-21,1.1975,1.211,1.43400625,1.466521
10:17:19,30-Sep-21,1.1975,1.211,1.43400625,1.466521
10:17:19,30-Sep-21,1.1975,1.21,1.43400625,1.4641
10:17:19,30-Sep-21,1.1875,1.21,1.41015625,1.4641
10:17:19,30-Sep-21,1.1875,1.21,1.41015625,1.4641
10:17:19,30-Sep-21,1.1925,1.209,1.42205625,1.461681
10:17:19,30-Sep-21,1.1975,1.209,1.43400625,1.461681
10:17:19,30-Sep-21,1.1975,1.208,1.43400625,1.459264
10:17:19,30-Sep-21,1.227,1.207,1.505529,1.456849
10:17:19,30-Sep-21,1.227,1.206,1.505529,1.454436
10:17:19,30-Sep-21,1.2315,1.205,1.51659225,1.452025
10:17:19,30-Sep-21,1.2365,1.204,1.52893225,1.449616
10:17:19,30-Sep-21,1.2315,1.202,1.51659225,1.444804
10:17:19,30-Sep-21,1.2315,1.201,1.51659225,1.442401
10:17:19,30-Sep-21,1.212,1.199,1.468944,1.437601
10:17:19,30-Sep-21,1.212,1.197,1.468944,1.432809
10:17:19,30-Sep-21,1.212,1.195,1.468944,1.428025
10:17:19,30-Sep-21,1.1975,1.193,1.43400625,1.423249
10:17:19,30-Sep-21,1.173,1.191,1.375929,1.418481
10:17:19,30-Sep-21,1.163,1.189,1.352569,1.413721
10:17:20,30-Sep-21,1.163,1.187,1.352569,1.408969
10:17:20,30-Sep-21,1.1585,1.184,1.34212225,1.401856
10:17:20,30-Sep-21,1.1585,1.182,1.34212225,1.397124
10:17:20,30-Sep-21,1.163,1.18,1.352569,1.3924
10:17:20,30-Sep-21,1.163,1.178,1.352569,1.387684
10:17:20,30-Sep-21,1.173,1.175,1.375929,1.380625
10:17:20,30-Sep-21,1.183,1.173,1.399489,1.375929
10:17:20,30-Sep-21,1.183,1.171,1.399489,1.371241
10:17:20,30-Sep-21,1.183,1.169,1.399489,1.366561
10:17:20,30-Sep-21,1.183,1.167,1.399489,1.361889
10:17:20,30-Sep-21,1.173,1.165,1.375929,1.357225
10:17:20,30-Sep-21,1.173,1.163,1.375929,1.352569
10:17:20,30-Sep-21,1.173,1.161,1.375929,1.347921
10:17:20,30-Sep-21,1.168,1.159,1.364224,1.343281
10:17:20,30-Sep-21,1.168,1.157,1.364224,1.338649
10:17:20,30-Sep-21,1.1485,1.156,1.31905225,1.336336
10:17:20,30-Sep-21,1.1435,1.155,1.30759225,1.334025
10:17:20,30-Sep-21,1.1435,1.154,1.30759225,1.331716
10:17:20,30-Sep-21,1.134,1.153,1.285956,1.329409
10:17:20,30-Sep-21,1.134,1.152,1.285956,1.327104
10:17:20,30-Sep-21,1.134,1.151,1.285956,1.324801
10:17:20,30-Sep-21,1.134,1.151,1.285956,1.324801
10:17:20,30-Sep-21,1.139,1.151,1.297321,1.324801
10:17:20,30-Sep-21,1.139,1.151,1.297321,1.324801
10:17:20,30-Sep-21,1.163,1.151,1.352569,1.324801
10:17:20,30-Sep-21,1.173,1.151,1.375929,1.324801
10:17:20,30-Sep-21,1.173,1.152,1.375929,1.327104
10:17:20,30-Sep-21,1.178,1.153,1.387684,1.329409
10:17:20,30-Sep-21,1.178,1.154,1.387684,1.331716
10:17:20,30-Sep-21,1.178,1.155,1.387684,1.334025
10:17:20,30-Sep-21,1.168,1.157,1.364224,1.338649
10:17:20,30-Sep-21,1.163,1.159,1.352569,1.343281
10:17:20,30-Sep-21,1.163,1.161,1.352569,1.347921
10:17:20,30-Sep-21,1.1535,1.163,1.33056225,1.352569
10:17:20,30-Sep-21,1.1435,1.165,1.30759225,1.357225
10:17:20,30-Sep-21,1.1435,1.168,1.30759225,1.364224
10:17:20,30-Sep-21,1.1435,1.171,1.30759225,1.371241
10:17:20,30-Sep-21,1.139,1.174,1.297321,1.378276
10:17:20,30-Sep-21,1.1485,1.177,1.31905225,1.385329
10:17:20,30-Sep-21,1.163,1.181,1.352569,1.394761
10:17:20,30-Sep-21,1.163,1.185,1.352569,1.404225
10:17:20,30-Sep-21,1.1975,1.188,1.43400625,1.411344
10:17:20,30-Sep-21,1.212,1.192,1.468944,1.420864
10:17:20,30-Sep-21,1.212,1.196,1.468944,1.430416
10:17:20,30-Sep-21,1.212,1.2,1.468944,1.44
10:17:20,30-Sep-21,1.222,1.205,1.493284,1.452025
10:17:20,30-Sep-21,1.222,1.209,1.493284,1.461681
10:17:20,30-Sep-21,1.222,1.213,1.493284,1.471369
10:17:20,30-Sep-21,1.222,1.217,1.493284,1.481089
10:17:20,30-Sep-21,1.212,1.222,1.468944,1.493284
10:17:20,30-Sep-21,1.212,1.226,1.468944,1.503076
10:17:20,30-Sep-21,1.212,1.23,1.468944,1.5129
10:17:20,30-Sep-21,1.212,1.234,1.468944,1.522756
10:17:20,30-Sep-21,1.222,1.238,1.493284,1.532644
10:17:20,30-Sep-21,1.256,1.242,1.577536,1.542564
10:17:20,30-Sep-21,1.266,1.246,1.602756,1.552516
10:17:20,30-Sep-21,1.266,1.25,1.602756,1.5625
10:17:20,30-Sep-21,1.266,1.253,1.602756,1.570009
10:17:20,30-Sep-21,1.2805,1.256,1.63968025,1.577536
10:17:20,30-Sep-21,1.2805,1.259,1.63968025,1.585081
10:17:20,30-Sep-21,1.2805,1.262,1.63968025,1.592644
10:17:20,30-Sep-21,1.266,1.265,1.602756,1.600225
10:17:20,30-Sep-21,1.266,1.267,1.602756,1.605289
10:17:20,30-Sep-21,1.266,1.269,1.602756,1.610361
10:17:20,30-Sep-21,1.251,1.271,1.565001,1.615441
10:17:20,30-Sep-21,1.251,1.273,1.565001,1.620529
10:17:20,30-Sep-21,1.2465,1.274,1.55376225,1.623076
10:17:20,30-Sep-21,1.256,1.276,1.577536,1.628176
10:17:20,30-Sep-21,1.266,1.277,1.602756,1.630729
10:17:20,30-Sep-21,1.2905,1.277,1.66539025,1.630729
10:17:20,30-Sep-21,1.2905,1.278,1.66539025,1.633284
10:17:20,30-Sep-21,1.295,1.278,1.677025,1.633284
10:17:20,30-Sep-21,1.3,1.278,1.69,1.633284
10:17:20,30-Sep-21,1.295,1.278,1.677025,1.633284
10:17:20,30-Sep-21,1.295,1.278,1.677025,1.633284
10:17:20,30-Sep-21,1.2855,1.277,1.65251025,1.630729
10:17:20,30-Sep-21,1.2855,1.276,1.65251025,1.628176
10:17:20,30-Sep-21,1.271,1.275,1.615441,1.625625
10:17:20,30-Sep-21,1.266,1.274,1.602756,1.623076
10:17:20,30-Sep-21,1.256,1.273,1.577536,1.620529
10:17:20,30-Sep-21,1.256,1.271,1.577536,1.615441
10:17:20,30-Sep-21,1.256,1.27,1.577536,1.6129
10:17:21,30-Sep-21,1.2755,1.268,1.62690025,1.607824
10:17:21,30-Sep-21,1.2755,1.267,1.62690025,1.605289
10:17:21,30-Sep-21,1.2755,1.265,1.62690025,1.600225
10:17:21,30-Sep-21,1.2755,1.263,1.62690025,1.595169
10:17:21,30-Sep-21,1.2755,1.261,1.62690025,1.590121
10:17:21,30-Sep-21,1.271,1.26,1.615441,1.5876
10:17:21,30-Sep-21,1.271,1.258,1.615441,1.582564
10:17:21,30-Sep-21,1.261,1.256,1.590121,1.577536
10:17:21,30-Sep-21,1.261,1.255,1.590121,1.575025
10:17:21,30-Sep-21,1.2415,1.254,1.54132225,1.572516
10:17:21,30-Sep-21,1.2415,1.252,1.54132225,1.567504
10:17:21,30-Sep-21,1.2365,1.251,1.52893225,1.565001
10:17:21,30-Sep-21,1.222,1.25,1.493284,1.5625
10:17:21,30-Sep-21,1.222,1.249,1.493284,1.560001
10:17:21,30-Sep-21,1.2315,1.249,1.51659225,1.560001
10:17:21,30-Sep-21,1.2315,1.249,1.51659225,1.560001
10:17:21,30-Sep-21,1.2415,1.248,1.54132225,1.557504
10:17:21,30-Sep-21,1.2415,1.249,1.54132225,1.560001
10:17:21,30-Sep-21,1.256,1.249,1.577536,1.560001
10:17:21,30-Sep-21,1.256,1.25,1.577536,1.5625
10:17:21,30-Sep-21,1.266,1.25,1.602756,1.5625
10:17:21,30-Sep-21,1.2805,1.252,1.63968025,1.567504
10:17:21,30-Sep-21,1.2805,1.253,1.63968025,1.570009
10:17:21,30-Sep-21,1.2805,1.255,1.63968025,1.575025
10:17:21,30-Sep-21,1.2805,1.257,1.63968025,1.580049
10:17:21,30-Sep-21,1.2805,1.259,1.63968025,1.585081
10:17:21,30-Sep-21,1.266,1.261,1.602756,1.590121
10:17:21,30-Sep-21,1.261,1.264,1.590121,1.597696
10:17:21,30-Sep-21,1.2465,1.267,1.55376225,1.605289
10:17:21,30-Sep-21,1.2365,1.27,1.52893225,1.6129
10:17:21,30-Sep-21,1.2365,1.274,1.52893225,1.623076
10:17:21,30-Sep-21,1.2415,1.278,1.54132225,1.633284
10:17:21,30-Sep-21,1.2415,1.282,1.54132225,1.643524
10:17:21,30-Sep-21,1.2415,1.286,1.54132225,1.653796
10:17:21,30-Sep-21,1.256,1.29,1.577536,1.6641
10:17:21,30-Sep-21,1.295,1.295,1.677025,1.677025
10:17:21,30-Sep-21,1.315,1.3,1.729225,1.69
10:17:21,30-Sep-21,1.315,1.305,1.729225,1.703025
10:17:21,30-Sep-21,1.3295,1.309,1.76757025,1.713481
10:17:21,30-Sep-21,1.339,1.314,1.792921,1.726596
10:17:21,30-Sep-21,1.339,1.319,1.792921,1.739761
10:17:21,30-Sep-21,1.339,1.324,1.792921,1.752976
10:17:21,30-Sep-21,1.339,1.329,1.792921,1.766241
10:17:21,30-Sep-21,1.344,1.334,1.806336,1.779556
10:17:21,30-Sep-21,1.3295,1.339,1.76757025,1.792921
10:17:21,30-Sep-21,1.3345,1.343,1.78089025,1.803649
10:17:21,30-Sep-21,1.3345,1.348,1.78089025,1.817104
10:17:21,30-Sep-21,1.344,1.352,1.806336,1.827904
10:17:21,30-Sep-21,1.344,1.356,1.806336,1.838736
10:17:21,30-Sep-21,1.3585,1.36,1.84552225,1.8496
10:17:21,30-Sep-21,1.3735,1.364,1.88650225,1.860496
10:17:21,30-Sep-21,1.3735,1.367,1.88650225,1.868689
10:17:21,30-Sep-21,1.4025,1.37,1.96700625,1.8769
10:17:21,30-Sep-21,1.4025,1.373,1.96700625,1.885129
10:17:21,30-Sep-21,1.4025,1.375,1.96700625,1.890625
10:17:21,30-Sep-21,1.4025,1.378,1.96700625,1.898884
10:17:21,30-Sep-21,1.4025,1.379,1.96700625,1.901641
10:17:21,30-Sep-21,1.4025,1.381,1.96700625,1.907161
10:17:21,30-Sep-21,1.383,1.382,1.912689,1.909924
10:17:21,30-Sep-21,1.3785,1.383,1.90026225,1.912689
10:17:21,30-Sep-21,1.3785,1.384,1.90026225,1.915456
10:17:21,30-Sep-21,1.3785,1.384,1.90026225,1.915456
10:17:21,30-Sep-21,1.3685,1.384,1.87279225,1.915456
10:17:21,30-Sep-21,1.3635,1.384,1.85913225,1.915456
10:17:21,30-Sep-21,1.3585,1.383,1.84552225,1.912689
10:17:21,30-Sep-21,1.3585,1.382,1.84552225,1.909924
10:17:21,30-Sep-21,1.383,1.381,1.912689,1.907161
10:17:21,30-Sep-21,1.383,1.38,1.912689,1.9044
10:17:21,30-Sep-21,1.383,1.379,1.912689,1.901641
10:17:21,30-Sep-21,1.383,1.377,1.912689,1.896129
10:17:21,30-Sep-21,1.383,1.375,1.912689,1.890625
10:17:21,30-Sep-21,1.3735,1.373,1.88650225,1.885129
10:17:21,30-Sep-21,1.3735,1.37,1.88650225,1.8769
10:17:21,30-Sep-21,1.3635,1.368,1.85913225,1.871424
10:17:21,30-Sep-21,1.349,1.365,1.819801,1.863225
10:17:21,30-Sep-21,1.349,1.362,1.819801,1.855044
10:17:21,30-Sep-21,1.349,1.359,1.819801,1.846881
10:17:21,30-Sep-21,1.3295,1.356,1.76757025,1.838736
10:17:21,30-Sep-21,1.3195,1.353,1.74108025,1.830609
10:17:21,30-Sep-21,1.3195,1.349,1.74108025,1.819801
10:17:21,30-Sep-21,1.3195,1.345,1.74108025,1.809025
10:17:21,30-Sep-21,1.3245,1.342,1.75430025,1.800964
10:17:21,30-Sep-21,1.3345,1.338,1.78089025,1.790244
10:17:21,30-Sep-21,1.3345,1.333,1.78089025,1.776889
10:17:21,30-Sep-21,1.3585,1.329,1.84552225,1.766241
10:17:22,30-Sep-21,1.3585,1.325,1.84552225,1.755625
10:17:22,30-Sep-21,1.3635,1.32,1.85913225,1.7424
10:17:22,30-Sep-21,1.354,1.316,1.833316,1.731856
10:17:22,30-Sep-21,1.354,1.311,1.833316,1.718721
10:17:22,30-Sep-21,1.349,1.306,1.819801,1.705636
10:17:22,30-Sep-21,1.349,1.301,1.819801,1.692601
10:17:22,30-Sep-21,1.315,1.297,1.729225,1.682209
10:17:22,30-Sep-21,1.295,1.292,1.677025,1.669264
10:17:22,30-Sep-21,1.295,1.287,1.677025,1.656369
10:17:22,30-Sep-21,1.2755,1.282,1.62690025,1.643524
10:17:22,30-Sep-21,1.256,1.278,1.577536,1.633284
10:17:22,30-Sep-21,1.2465,1.273,1.55376225,1.620529
10:17:22,30-Sep-21,1.2465,1.269,1.55376225,1.610361
10:17:22,30-Sep-21,1.2465,1.265,1.55376225,1.600225
10:17:22,30-Sep-21,1.266,1.262,1.602756,1.592644
10:17:22,30-Sep-21,1.261,1.258,1.590121,1.582564
10:17:22,30-Sep-21,1.261,1.255,1.590121,1.575025
10:17:22,30-Sep-21,1.261,1.253,1.590121,1.570009
10:17:22,30-Sep-21,1.256,1.25,1.577536,1.5625
10:17:22,30-Sep-21,1.2415,1.249,1.54132225,1.560001
10:17:22,30-Sep-21,1.2415,1.247,1.54132225,1.555009
10:17:22,30-Sep-21,1.2415,1.246,1.54132225,1.552516
10:17:22,30-Sep-21,1.2365,1.246,1.52893225,1.552516
10:17:22,30-Sep-21,1.2365,1.246,1.52893225,1.552516
10:17:22,30-Sep-21,1.227,1.247,1.505529,1.555009
10:17:22,30-Sep-21,1.227,1.248,1.505529,1.557504
10:17:22,30-Sep-21,1.227,1.25,1.505529,1.5625
10:17:22,30-Sep-21,1.227,1.253,1.505529,1.570009
10:17:22,30-Sep-21,1.2415,1.256,1.54132225,1.577536
10:17:22,30-Sep-21,1.251,1.259,1.565001,1.585081
10:17:22,30-Sep-21,1.251,1.263,1.565001,1.595169
10:17:22,30-Sep-21,1.2805,1.268,1.63968025,1.607824
10:17:22,30-Sep-21,1.295,1.273,1.677025,1.620529
10:17:22,30-Sep-21,1.295,1.278,1.677025,1.633284
10:17:22,30-Sep-21,1.3,1.284,1.69,1.648656
10:17:22,30-Sep-21,1.3,1.291,1.69,1.666681
10:17:22,30-Sep-21,1.3,1.298,1.69,1.684804
10:17:22,30-Sep-21,1.305,1.305,1.703025,1.703025
10:17:22,30-Sep-21,1.305,1.312,1.703025,1.721344
10:17:22,30-Sep-21,1.2905,1.32,1.66539025,1.7424
10:17:22,30-Sep-21,1.2855,1.328,1.65251025,1.763584
10:17:22,30-Sep-21,1.2855,1.337,1.65251025,1.787569
10:17:22,30-Sep-21,1.2855,1.345,1.65251025,1.809025
10:17:22,30-Sep-21,1.2855,1.353,1.65251025,1.830609
10:17:22,30-Sep-21,1.2905,1.362,1.66539025,1.855044
10:17:22,30-Sep-21,1.4175,1.371,2.00930625,1.879641
10:17:22,30-Sep-21,1.4175,1.379,2.00930625,1.901641
10:17:22,30-Sep-21,1.4175,1.388,2.00930625,1.926544
10:17:22,30-Sep-21,1.427,1.396,2.036329,1.948816
10:17:22,30-Sep-21,1.427,1.404,2.036329,1.971216
10:17:22,30-Sep-21,1.442,1.412,2.079364,1.993744
10:17:22,30-Sep-21,1.4565,1.419,2.12139225,2.013561
10:17:22,30-Sep-21,1.4565,1.427,2.12139225,2.036329
10:17:22,30-Sep-21,1.486,1.433,2.208196,2.053489
10:17:22,30-Sep-21,1.486,1.44,2.208196,2.0736
10:17:22,30-Sep-21,1.4955,1.446,2.23652025,2.090916
10:17:22,30-Sep-21,1.4955,1.452,2.23652025,2.108304
10:17:22,30-Sep-21,1.4955,1.458,2.23652025,2.125764
10:17:22,30-Sep-21,1.5005,1.463,2.25150025,2.140369
10:17:22,30-Sep-21,1.5005,1.468,2.25150025,2.155024
10:17:22,30-Sep-21,1.4905,1.473,2.22159025,2.169729
10:17:22,30-Sep-21,1.481,1.477,2.193361,2.181529
10:17:22,30-Sep-21,1.481,1.481,2.193361,2.193361
10:17:22,30-Sep-21,1.481,1.485,2.193361,2.205225
10:17:22,30-Sep-21,1.4565,1.489,2.12139225,2.217121
10:17:22,30-Sep-21,1.4515,1.492,2.10685225,2.226064
10:17:22,30-Sep-21,1.442,1.496,2.079364,2.238016
10:17:22,30-Sep-21,1.442,1.499,2.079364,2.247001
10:17:22,30-Sep-21,1.4515,1.503,2.10685225,2.259009
10:17:22,30-Sep-21,1.486,1.506,2.208196,2.268036
10:17:22,30-Sep-21,1.486,1.509,2.208196,2.277081
10:17:22,30-Sep-21,1.486,1.513,2.208196,2.289169
10:17:22,30-Sep-21,1.5005,1.516,2.25150025,2.298256
10:17:22,30-Sep-21,1.52,1.519,2.3104,2.307361
10:17:22,30-Sep-21,1.52,1.523,2.3104,2.319529
10:17:22,30-Sep-21,1.5345,1.526,2.35469025,2.328676
10:17:22,30-Sep-21,1.5495,1.53,2.40095025,2.3409
10:17:23,30-Sep-21,1.5495,1.533,2.40095025,2.350089
10:17:23,30-Sep-21,1.5445,1.537,2.38548025,2.362369
10:17:23,30-Sep-21,1.5445,1.541,2.38548025,2.374681
10:17:23,30-Sep-21,1.5445,1.545,2.38548025,2.387025
10:17:23,30-Sep-21,1.5495,1.549,2.40095025,2.399401
10:17:23,30-Sep-21,1.5495,1.552,2.40095025,2.408704
10:17:23,30-Sep-21,1.5395,1.556,2.37006025,2.421136
10:17:23,30-Sep-21,1.5395,1.56,2.37006025,2.4336
10:17:23,30-Sep-21,1.5495,1.564,2.40095025,2.446096
10:17:23,30-Sep-21,1.5495,1.568,2.40095025,2.458624
10:17:23,30-Sep-21,1.564,1.572,2.446096,2.471184
10:17:23,30-Sep-21,1.564,1.576,2.446096,2.483776
10:17:23,30-Sep-21,1.5835,1.58,2.50747225,2.4964
10:17:23,30-Sep-21,1.5835,1.584,2.50747225,2.509056
10:17:23,30-Sep-21,1.5835,1.587,2.50747225,2.518569
10:17:23,30-Sep-21,1.603,1.591,2.569609,2.531281
10:17:23,30-Sep-21,1.6325,1.594,2.66505625,2.540836
10:17:23,30-Sep-21,1.6325,1.598,2.66505625,2.553604
10:17:23,30-Sep-21,1.642,1.601,2.696164,2.563201
10:17:23,30-Sep-21,1.6375,1.604,2.68140625,2.572816
10:17:23,30-Sep-21,1.6375,1.607,2.68140625,2.582449
10:17:23,30-Sep-21,1.6275,1.61,2.64875625,2.5921
10:17:23,30-Sep-21,1.6275,1.612,2.64875625,2.598544
10:17:23,30-Sep-21,1.608,1.615,2.585664,2.608225
10:17:23,30-Sep-21,1.603,1.617,2.569609,2.614689
10:17:23,30-Sep-21,1.603,1.619,2.569609,2.621161
10:17:23,30-Sep-21,1.598,1.621,2.553604,2.627641
10:17:23,30-Sep-21,1.598,1.623,2.553604,2.634129
10:17:23,30-Sep-21,1.598,1.625,2.553604,2.640625
10:17:23,30-Sep-21,1.603,1.627,2.569609,2.647129
10:17:23,30-Sep-21,1.603,1.628,2.569609,2.650384
10:17:23,30-Sep-21,1.647,1.629,2.712609,2.653641
10:17:23,30-Sep-21,1.657,1.631,2.745649,2.660161
10:17:23,30-Sep-21,1.662,1.632,2.762244,2.663424
10:17:23,30-Sep-21,1.652,1.633,2.729104,2.666689
10:17:23,30-Sep-21,1.652,1.633,2.729104,2.666689
10:17:23,30-Sep-21,1.652,1.634,2.729104,2.669956
10:17:23,30-Sep-21,1.6325,1.634,2.66505625,2.669956
10:17:23,30-Sep-21,1.6225,1.634,2.63250625,2.669956
10:17:23,30-Sep-21,1.598,1.634,2.553604,2.669956
10:17:23,30-Sep-21,1.598,1.634,2.553604,2.669956
10:17:23,30-Sep-21,1.598,1.634,2.553604,2.669956
10:17:23,30-Sep-21,1.598,1.633,2.553604,2.666689
10:17:23,30-Sep-21,1.598,1.633,2.553604,2.666689
10:17:23,30-Sep-21,1.6225,1.632,2.63250625,2.663424
10:17:23,30-Sep-21,1.647,1.63,2.712609,2.6569
10:17:23,30-Sep-21,1.642,1.629,2.696164,2.653641
10:17:23,30-Sep-21,1.642,1.627,2.696164,2.647129
10:17:23,30-Sep-21,1.642,1.625,2.696164,2.640625
10:17:23,30-Sep-21,1.6325,1.622,2.66505625,2.630884
10:17:23,30-Sep-21,1.618,1.619,2.617924,2.621161
10:17:23,30-Sep-21,1.618,1.616,2.617924,2.611456
10:17:23,30-Sep-21,1.5935,1.613,2.53924225,2.601769
10:17:23,30-Sep-21,1.5935,1.608,2.53924225,2.585664
10:17:23,30-Sep-21,1.5935,1.604,2.53924225,2.572816
10:17:23,30-Sep-21,1.5935,1.599,2.53924225,2.556801
10:17:23,30-Sep-21,1.5885,1.594,2.52333225,2.540836
10:17:23,30-Sep-21,1.5885,1.588,2.52333225,2.521744
10:17:23,30-Sep-21,1.569,1.581,2.461761,2.499561
10:17:23,30-Sep-21,1.569,1.574,2.461761,2.477476
10:17:23,30-Sep-21,1.559,1.567,2.430481,2.455489
10:17:23,30-Sep-21,1.5495,1.559,2.40095025,2.430481
10:17:23,30-Sep-21,1.5495,1.551,2.40095025,2.405601
10:17:23,30-Sep-21,1.569,1.542,2.461761,2.377764
10:17:23,30-Sep-21,1.569,1.532,2.461761,2.347024
10:17:23,30-Sep-21,1.569,1.522,2.461761,2.316484
10:17:23,30-Sep-21,1.5545,1.512,2.41647025,2.286144
10:17:23,30-Sep-21,1.5545,1.501,2.41647025,2.253001
10:17:23,30-Sep-21,1.53,1.49,2.3409,2.2201
10:17:23,30-Sep-21,1.53,1.479,2.3409,2.187441
10:17:23,30-Sep-21,1.4955,1.467,2.23652025,2.152089
10:17:23,30-Sep-21,1.4955,1.455,2.23652025,2.117025
10:17:23,30-Sep-21,1.442,1.443,2.079364,2.082249
10:17:23,30-Sep-21,1.442,1.431,2.079364,2.047761
10:17:23,30-Sep-21,1.398,1.419,1.954404,2.013561
10:17:23,30-Sep-21,1.398,1.406,1.954404,1.976836
10:17:23,30-Sep-21,1.398,1.394,1.954404,1.943236
10:17:23,30-Sep-21,1.354,1.382,1.833316,1.909924
10:17:23,30-Sep-21,1.354,1.37,1.833316,1.8769
10:17:23,30-Sep-21,1.354,1.359,1.833316,1.846881
10:17:23,30-Sep-21,1.315,1.348,1.729225,1.817104
10:17:23,30-Sep-21,1.315,1.337,1.729225,1.787569
10:17:23,30-Sep-21,1.2905,1.327,1.66539025,1.760929
10:17:23,30-Sep-21,1.2805,1.317,1.63968025,1.734489
10:17:23,30-Sep-21,1.2805,1.308,1.63968025,1.710864
10:17:23,30-Sep-21,1.2805,1.3,1.63968025,1.69
10:17:23,30-Sep-21,1.2805,1.292,1.63968025,1.669264
10:17:23,30-Sep-21,1.2905,1.285,1.66539025,1.651225
10:17:23,30-Sep-21,1.2905,1.279,1.66539025,1.635841
10:17:23,30-Sep-21,1.2855,1.274,1.65251025,1.623076
10:17:23,30-Sep-21,1.2755,1.269,1.62690025,1.610361
10:17:23,30-Sep-21,1.2755,1.265,1.62690025,1.600225
10:17:23,30-Sep-21,1.266,1.262,1.602756,1.592644
10:17:23,30-Sep-21,1.2465,1.26,1.55376225,1.5876
10:17:23,30-Sep-21,1.2465,1.259,1.55376225,1.585081
10:17:24,30-Sep-21,1.2465,1.259,1.55376225,1.585081
10:17:24,30-Sep-21,1.2415,1.259,1.54132225,1.585081
10:17:24,30-Sep-21,1.2415,1.26,1.54132225,1.5876
10:17:24,30-Sep-21,1.2415,1.262,1.54132225,1.592644
10:17:24,30-Sep-21,1.2415,1.265,1.54132225,1.600225
10:17:24,30-Sep-21,1.2415,1.268,1.54132225,1.607824
10:17:24,30-Sep-21,1.2415,1.272,1.54132225,1.617984
10:17:24,30-Sep-21,1.2855,1.277,1.65251025,1.630729
10:17:24,30-Sep-21,1.2855,1.282,1.65251025,1.643524
10:17:24,30-Sep-21,1.2855,1.288,1.65251025,1.658944
10:17:24,30-Sep-21,1.31,1.295,1.7161,1.677025
10:17:24,30-Sep-21,1.3295,1.302,1.76757025,1.695204
10:17:24,30-Sep-21,1.344,1.309,1.806336,1.713481
10:17:24,30-Sep-21,1.344,1.317,1.806336,1.734489
10:17:24,30-Sep-21,1.339,1.325,1.792921,1.755625
10:17:24,30-Sep-21,1.344,1.333,1.806336,1.776889
10:17:24,30-Sep-21,1.344,1.342,1.806336,1.800964
10:17:24,30-Sep-21,1.344,1.35,1.806336,1.8225
10:17:24,30-Sep-21,1.354,1.359,1.833316,1.846881
10:17:24,30-Sep-21,1.354,1.368,1.833316,1.871424
10:17:24,30-Sep-21,1.3635,1.377,1.85913225,1.896129
10:17:24,30-Sep-21,1.3635,1.385,1.85913225,1.918225
10:17:24,30-Sep-21,1.3785,1.394,1.90026225,1.943236
10:17:24,30-Sep-21,1.3785,1.402,1.90026225,1.965604
10:17:24,30-Sep-21,1.388,1.41,1.926544,1.9881
10:17:24,30-Sep-21,1.4225,1.418,2.02350625,2.010724
10:17:24,30-Sep-21,1.4225,1.426,2.02350625,2.033476
10:17:24,30-Sep-21,1.432,1.433,2.050624,2.053489
10:17:24,30-Sep-21,1.437,1.44,2.064969,2.0736
10:17:24,30-Sep-21,1.4615,1.446,2.13598225,2.090916
10:17:24,30-Sep-21,1.4615,1.452,2.13598225,2.108304
10:17:24,30-Sep-21,1.481,1.457,2.193361,2.122849
10:17:24,30-Sep-21,1.481,1.461,2.193361,2.134521
10:17:24,30-Sep-21,1.481,1.465,2.193361,2.146225
10:17:24,30-Sep-21,1.4905,1.469,2.22159025,2.157961
10:17:24,30-Sep-21,1.4905,1.472,2.22159025,2.166784
10:17:24,30-Sep-21,1.4905,1.474,2.22159025,2.172676
10:17:24,30-Sep-21,1.481,1.475,2.193361,2.175625
10:17:24,30-Sep-21,1.481,1.476,2.193361,2.178576
10:17:24,30-Sep-21,1.4905,1.476,2.22159025,2.178576
10:17:24,30-Sep-21,1.4905,1.476,2.22159025,2.178576
10:17:24,30-Sep-21,1.4905,1.475,2.22159025,2.175625
10:17:24,30-Sep-21,1.5005,1.473,2.25150025,2.169729
10:17:24,30-Sep-21,1.5005,1.471,2.25150025,2.163841
10:17:24,30-Sep-21,1.5005,1.468,2.25150025,2.155024
10:17:24,30-Sep-21,1.5055,1.465,2.26653025,2.146225
10:17:24,30-Sep-21,1.5005,1.461,2.25150025,2.134521
10:17:24,30-Sep-21,1.471,1.458,2.163841,2.125764
10:17:24,30-Sep-21,1.4465,1.453,2.09236225,2.111209
10:17:24,30-Sep-21,1.4465,1.449,2.09236225,2.099601
10:17:24,30-Sep-21,1.4075,1.444,1.98105625,2.085136
10:17:24,30-Sep-21,1.4075,1.439,1.98105625,2.070721
10:17:24,30-Sep-21,1.388,1.434,1.926544,2.056356
10:17:24,30-Sep-21,1.388,1.429,1.926544,2.042041
10:17:24,30-Sep-21,1.3785,1.424,1.90026225,2.027776
10:17:24,30-Sep-21,1.3785,1.419,1.90026225,2.013561
10:17:24,30-Sep-21,1.3785,1.414,1.90026225,1.999396
10:17:24,30-Sep-21,1.3785,1.409,1.90026225,1.985281
10:17:24,30-Sep-21,1.398,1.404,1.954404,1.971216
10:17:24,30-Sep-21,1.398,1.399,1.954404,1.957201
10:17:24,30-Sep-21,1.398,1.395,1.954404,1.946025
10:17:24,30-Sep-21,1.398,1.391,1.954404,1.934881
10:17:24,30-Sep-21,1.398,1.387,1.954404,1.923769
10:17:24,30-Sep-21,1.393,1.383,1.940449,1.912689
10:17:24,30-Sep-21,1.393,1.38,1.940449,1.9044
10:17:24,30-Sep-21,1.393,1.377,1.940449,1.896129
10:17:24,30-Sep-21,1.393,1.374,1.940449,1.887876
10:17:24,30-Sep-21,1.393,1.371,1.940449,1.879641
10:17:24,30-Sep-21,1.3785,1.369,1.90026225,1.874161
10:17:24,30-Sep-21,1.3785,1.368,1.90026225,1.871424
10:17:24,30-Sep-21,1.3735,1.366,1.88650225,1.865956
10:17:24,30-Sep-21,1.3735,1.365,1.88650225,1.863225
10:17:24,30-Sep-21,1.3735,1.364,1.88650225,1.860496
10:17:24,30-Sep-21,1.349,1.364,1.819801,1.860496
10:17:24,30-Sep-21,1.339,1.364,1.792921,1.860496
10:17:24,30-Sep-21,1.339,1.364,1.792921,1.860496
10:17:24,30-Sep-21,1.339,1.365,1.792921,1.863225
10:17:24,30-Sep-21,1.3295,1.366,1.76757025,1.865956
10:17:24,30-Sep-21,1.3295,1.367,1.76757025,1.868689
10:17:24,30-Sep-21,1.3585,1.369,1.84552225,1.874161
10:17:24,30-Sep-21,1.3585,1.371,1.84552225,1.879641
10:17:24,30-Sep-21,1.3685,1.373,1.87279225,1.885129
10:17:24,30-Sep-21,1.3685,1.375,1.87279225,1.890625
10:17:24,30-Sep-21,1.388,1.378,1.926544,1.898884
10:17:24,30-Sep-21,1.4025,1.38,1.96700625,1.9044
10:17:24,30-Sep-21,1.4075,1.383,1.98105625,1.912689
10:17:24,30-Sep-21,1.4075,1.386,1.98105625,1.920996
10:17:24,30-Sep-21,1.4075,1.389,1.98105625,1.929321
10:17:24,30-Sep-21,1.398,1.392,1.954404,1.937664
10:17:24,30-Sep-21,1.398,1.395,1.954404,1.946025
10:17:24,30-Sep-21,1.383,1.398,1.912689,1.954404
10:17:25,30-Sep-21,1.383,1.401,1.912689,1.962801
10:17:25,30-Sep-21,1.388,1.403,1.926544,1.968409
10:17:25,30-Sep-21,1.388,1.406,1.926544,1.976836
10:17:25,30-Sep-21,1.4125,1.409,1.99515625,1.985281
10:17:25,30-Sep-21,1.4125,1.411,1.99515625,1.990921
10:17:25,30-Sep-21,1.437,1.413,2.064969,1.996569
10:17:25,30-Sep-21,1.442,1.415,2.079364,2.002225
10:17:25,30-Sep-21,1.437,1.417,2.064969,2.007889
10:17:25,30-Sep-21,1.437,1.419,2.064969,2.013561
10:17:25,30-Sep-21,1.437,1.42,2.064969,2.0164
10:17:25,30-Sep-21,1.4225,1.421,2.02350625,2.019241
10:17:25,30-Sep-21,1.4175,1.422,2.00930625,2.022084
10:17:25,30-Sep-21,1.4175,1.423,2.00930625,2.024929
10:17:25,30-Sep-21,1.4125,1.423,1.99515625,2.024929
10:17:25,30-Sep-21,1.4125,1.423,1.99515625,2.024929
10:17:25,30-Sep-21,1.4125,1.422,1.99515625,2.022084
10:17:25,30-Sep-21,1.4125,1.422,1.99515625,2.022084
10:17:25,30-Sep-21,1.4125,1.421,1.99515625,2.019241
10:17:25,30-Sep-21,1.437,1.42,2.064969,2.0164
10:17:25,30-Sep-21,1.442,1.418,2.079364,2.010724
10:17:25,30-Sep-21,1.442,1.417,2.079364,2.007889
10:17:25,30-Sep-21,1.437,1.415,2.064969,2.002225
10:17:25,30-Sep-21,1.437,1.413,2.064969,1.996569
10:17:25,30-Sep-21,1.4225,1.411,2.02350625,1.990921
10:17:25,30-Sep-21,1.4175,1.408,2.00930625,1.982464
10:17:25,30-Sep-21,1.4175,1.406,2.00930625,1.976836
10:17:25,30-Sep-21,1.393,1.403,1.940449,1.968409
10:17:25,30-Sep-21,1.388,1.401,1.926544,1.962801
10:17:25,30-Sep-21,1.388,1.398,1.926544,1.954404
10:17:25,30-Sep-21,1.388,1.395,1.926544,1.946025
10:17:25,30-Sep-21,1.383,1.393,1.912689,1.940449
10:17:25,30-Sep-21,1.383,1.39,1.912689,1.9321
10:17:25,30-Sep-21,1.3785,1.387,1.90026225,1.923769
10:17:25,30-Sep-21,1.393,1.385,1.940449,1.918225
10:17:25,30-Sep-21,1.393,1.382,1.940449,1.909924
10:17:25,30-Sep-21,1.393,1.38,1.940449,1.9044
10:17:25,30-Sep-21,1.383,1.378,1.912689,1.898884
10:17:25,30-Sep-21,1.3685,1.376,1.87279225,1.893376
10:17:25,30-Sep-21,1.3635,1.374,1.85913225,1.887876
10:17:25,30-Sep-21,1.3635,1.373,1.85913225,1.885129
10:17:25,30-Sep-21,1.344,1.372,1.806336,1.882384
10:17:25,30-Sep-21,1.344,1.371,1.806336,1.879641
10:17:25,30-Sep-21,1.3345,1.37,1.78089025,1.8769
10:17:25,30-Sep-21,1.3345,1.369,1.78089025,1.874161
10:17:25,30-Sep-21,1.339,1.369,1.792921,1.874161
10:17:25,30-Sep-21,1.339,1.368,1.792921,1.871424
10:17:25,30-Sep-21,1.344,1.368,1.806336,1.871424
10:17:25,30-Sep-21,1.3785,1.369,1.90026225,1.874161
10:17:25,30-Sep-21,1.3785,1.369,1.90026225,1.874161
10:17:25,30-Sep-21,1.388,1.369,1.926544,1.874161
10:17:25,30-Sep-21,1.388,1.37,1.926544,1.8769
10:17:25,30-Sep-21,1.4025,1.371,1.96700625,1.879641
10:17:25,30-Sep-21,1.4025,1.372,1.96700625,1.882384
10:17:25,30-Sep-21,1.388,1.373,1.926544,1.885129
10:17:25,30-Sep-21,1.383,1.374,1.912689,1.887876
10:17:25,30-Sep-21,1.383,1.375,1.912689,1.890625
10:17:25,30-Sep-21,1.3785,1.376,1.90026225,1.893376
10:17:25,30-Sep-21,1.3785,1.377,1.90026225,1.896129
10:17:25,30-Sep-21,1.3635,1.378,1.85913225,1.898884
10:17:25,30-Sep-21,1.3635,1.379,1.85913225,1.901641
10:17:25,30-Sep-21,1.3685,1.38,1.87279225,1.9044
10:17:25,30-Sep-21,1.3685,1.381,1.87279225,1.907161
10:17:25,30-Sep-21,1.3685,1.382,1.87279225,1.909924
10:17:25,30-Sep-21,1.383,1.383,1.912689,1.912689
10:17:25,30-Sep-21,1.4075,1.383,1.98105625,1.912689
10:17:25,30-Sep-21,1.4075,1.384,1.98105625,1.915456
10:17:25,30-Sep-21,1.398,1.384,1.954404,1.915456
10:17:25,30-Sep-21,1.398,1.385,1.954404,1.918225
10:17:25,30-Sep-21,1.393,1.385,1.940449,1.918225
10:17:25,30-Sep-21,1.393,1.385,1.940449,1.918225
10:17:25,30-Sep-21,1.388,1.385,1.926544,1.918225
10:17:25,30-Sep-21,1.383,1.385,1.912689,1.918225
10:17:25,30-Sep-21,1.383,1.384,1.912689,1.915456
10:17:25,30-Sep-21,1.383,1.384,1.912689,1.915456
10:17:25,30-Sep-21,1.3785,1.383,1.90026225,1.912689
10:17:25,30-Sep-21,1.3685,1.382,1.87279225,1.909924
10:17:25,30-Sep-21,1.3685,1.382,1.87279225,1.909924
10:17:26,30-Sep-21,1.3685,1.381,1.87279225,1.907161
10:17:26,30-Sep-21,1.383,1.38,1.912689,1.9044
10:17:26,30-Sep-21,1.388,1.379,1.926544,1.901641
10:17:26,30-Sep-21,1.388,1.377,1.926544,1.896129
10:17:26,30-Sep-21,1.398,1.376,1.954404,1.893376
10:17:26,30-Sep-21,1.393,1.375,1.940449,1.890625
10:17:26,30-Sep-21,1.388,1.373,1.926544,1.885129
10:17:26,30-Sep-21,1.388,1.372,1.926544,1.882384
10:17:26,30-Sep-21,1.388,1.37,1.926544,1.8769
10:17:26,30-Sep-21,1.3685,1.369,1.87279225,1.874161
10:17:26,30-Sep-21,1.3585,1.367,1.84552225,1.868689
10:17:26,30-Sep-21,1.339,1.366,1.792921,1.865956
10:17:26,30-Sep-21,1.339,1.364,1.792921,1.860496
10:17:26,30-Sep-21,1.3295,1.363,1.76757025,1.857769
10:17:26,30-Sep-21,1.3295,1.362,1.76757025,1.855044
10:17:26,30-Sep-21,1.3345,1.36,1.78089025,1.8496
10:17:26,30-Sep-21,1.339,1.359,1.792921,1.846881
10:17:26,30-Sep-21,1.339,1.358,1.792921,1.844164
10:17:26,30-Sep-21,1.3685,1.357,1.87279225,1.841449
10:17:26,30-Sep-21,1.3685,1.356,1.87279225,1.838736
10:17:26,30-Sep-21,1.3685,1.355,1.87279225,1.836025
10:17:26,30-Sep-21,1.3685,1.354,1.87279225,1.833316
10:17:26,30-Sep-21,1.3685,1.353,1.87279225,1.830609
10:17:26,30-Sep-21,1.3735,1.352,1.88650225,1.827904
10:17:26,30-Sep-21,1.3735,1.352,1.88650225,1.827904
10:17:26,30-Sep-21,1.3635,1.351,1.85913225,1.825201
10:17:26,30-Sep-21,1.3635,1.351,1.85913225,1.825201
10:17:26,30-Sep-21,1.3635,1.351,1.85913225,1.825201
10:17:26,30-Sep-21,1.3635,1.35,1.85913225,1.8225
10:17:26,30-Sep-21,1.344,1.35,1.806336,1.8225
10:17:26,30-Sep-21,1.344,1.35,1.806336,1.8225
10:17:26,30-Sep-21,1.339,1.35,1.792921,1.8225
10:17:26,30-Sep-21,1.339,1.35,1.792921,1.8225
10:17:26,30-Sep-21,1.339,1.351,1.792921,1.825201
10:17:26,30-Sep-21,1.3295,1.351,1.76757025,1.825201
10:17:26,30-Sep-21,1.3295,1.351,1.76757025,1.825201
10:17:26,30-Sep-21,1.3295,1.352,1.76757025,1.827904
10:17:26,30-Sep-21,1.3295,1.353,1.76757025,1.830609
10:17:26,30-Sep-21,1.354,1.354,1.833316,1.833316
10:17:26,30-Sep-21,1.354,1.355,1.833316,1.836025
10:17:26,30-Sep-21,1.3635,1.356,1.85913225,1.838736
10:17:26,30-Sep-21,1.3635,1.357,1.85913225,1.841449
10:17:26,30-Sep-21,1.383,1.358,1.912689,1.844164
10:17:26,30-Sep-21,1.383,1.359,1.912689,1.846881
10:17:26,30-Sep-21,1.383,1.361,1.912689,1.852321
10:17:26,30-Sep-21,1.383,1.362,1.912689,1.855044
10:17:26,30-Sep-21,1.383,1.364,1.912689,1.860496
10:17:26,30-Sep-21,1.383,1.365,1.912689,1.863225
10:17:26,30-Sep-21,1.3685,1.367,1.87279225,1.868689
10:17:26,30-Sep-21,1.3685,1.369,1.87279225,1.874161
10:17:26,30-Sep-21,1.3635,1.37,1.85913225,1.8769
10:17:26,30-Sep-21,1.3635,1.372,1.85913225,1.882384
10:17:26,30-Sep-21,1.344,1.374,1.806336,1.887876
10:17:26,30-Sep-21,1.344,1.376,1.806336,1.893376
10:17:26,30-Sep-21,1.339,1.377,1.792921,1.896129
10:17:26,30-Sep-21,1.339,1.379,1.792921,1.901641
10:17:26,30-Sep-21,1.349,1.381,1.819801,1.907161
10:17:26,30-Sep-21,1.3685,1.383,1.87279225,1.912689
10:17:26,30-Sep-21,1.3685,1.384,1.87279225,1.915456
10:17:26,30-Sep-21,1.3685,1.386,1.87279225,1.920996
10:17:26,30-Sep-21,1.4075,1.388,1.98105625,1.926544
10:17:26,30-Sep-21,1.4075,1.389,1.98105625,1.929321
10:17:26,30-Sep-21,1.4075,1.391,1.98105625,1.934881
10:17:26,30-Sep-21,1.4225,1.392,2.02350625,1.937664
10:17:26,30-Sep-21,1.427,1.393,2.036329,1.940449
10:17:26,30-Sep-21,1.427,1.394,2.036329,1.943236
10:17:26,30-Sep-21,1.4225,1.395,2.02350625,1.946025
10:17:26,30-Sep-21,1.4225,1.395,2.02350625,1.946025
10:17:26,30-Sep-21,1.4225,1.396,2.02350625,1.948816
10:17:26,30-Sep-21,1.398,1.396,1.954404,1.948816
10:17:26,30-Sep-21,1.398,1.397,1.954404,1.951609
10:17:26,30-Sep-21,1.398,1.397,1.954404,1.951609
10:17:26,30-Sep-21,1.388,1.396,1.926544,1.948816
10:17:26,30-Sep-21,1.3735,1.396,1.88650225,1.948816
10:17:26,30-Sep-21,1.3735,1.396,1.88650225,1.948816
10:17:26,30-Sep-21,1.3785,1.395,1.90026225,1.946025
10:17:26,30-Sep-21,1.3785,1.395,1.90026225,1.946025
10:17:26,30-Sep-21,1.398,1.394,1.954404,1.943236
10:17:26,30-Sep-21,1.398,1.394,1.954404,1.943236
10:17:26,30-Sep-21,1.4075,1.393,1.98105625,1.940449
10:17:26,30-Sep-21,1.4075,1.392,1.98105625,1.937664
10:17:26,30-Sep-21,1.4075,1.391,1.98105625,1.934881
10:17:26,30-Sep-21,1.4075,1.391,1.98105625,1.934881
10:17:26,30-Sep-21,1.4075,1.39,1.98105625,1.9321
10:17:26,30-Sep-21,1.398,1.389,1.954404,1.929321
10:17:26,30-Sep-21,1.398,1.388,1.954404,1.926544
10:17:26,30-Sep-21,1.398,1.388,1.954404,1.926544
10:17:26,30-Sep-21,1.383,1.387,1.912689,1.923769
10:17:26,30-Sep-21,1.3735,1.387,1.88650225,1.923769
10:17:26,30-Sep-21,1.3735,1.386,1.88650225,1.920996
10:17:26,30-Sep-21,1.354,1.386,1.833316,1.920996
10:17:26,30-Sep-21,1.354,1.386,1.833316,1.920996
10:17:26,30-Sep-21,1.349,1.386,1.819801,1.920996
10:17:26,30-Sep-21,1.349,1.386,1.819801,1.920996
10:17:26,30-Sep-21,1.349,1.386,1.819801,1.920996
10:17:26,30-Sep-21,1.3735,1.387,1.88650225,1.923769
10:17:26,30-Sep-21,1.3735,1.387,1.88650225,1.923769
10:17:26,30-Sep-21,1.3735,1.388,1.88650225,1.926544
10:17:26,30-Sep-21,1.388,1.389,1.926544,1.929321
10:17:26,30-Sep-21,1.388,1.389,1.926544,1.929321
10:17:27,30-Sep-21,1.4175,1.39,2.00930625,1.9321
10:17:27,30-Sep-21,1.4225,1.391,2.02350625,1.934881
10:17:27,30-Sep-21,1.4225,1.393,2.02350625,1.940449
10:17:27,30-Sep-21,1.4225,1.394,2.02350625,1.943236
10:17:27,30-Sep-21,1.4225,1.395,2.02350625,1.946025
10:17:27,30-Sep-21,1.4225,1.396,2.02350625,1.948816
10:17:27,30-Sep-21,1.4225,1.397,2.02350625,1.951609
10:17:27,30-Sep-21,1.398,1.399,1.954404,1.957201
10:17:27,30-Sep-21,1.393,1.4,1.940449,1.96
10:17:27,30-Sep-21,1.393,1.401,1.940449,1.962801
10:17:27,30-Sep-21,1.383,1.402,1.912689,1.965604
10:17:27,30-Sep-21,1.383,1.404,1.912689,1.971216
10:17:27,30-Sep-21,1.383,1.405,1.912689,1.974025
10:17:27,30-Sep-21,1.383,1.406,1.912689,1.976836
10:17:27,30-Sep-21,1.388,1.407,1.926544,1.979649
10:17:27,30-Sep-21,1.4125,1.408,1.99515625,1.982464
10:17:27,30-Sep-21,1.4125,1.409,1.99515625,1.985281
10:17:27,30-Sep-21,1.4225,1.411,2.02350625,1.990921
10:17:27,30-Sep-21,1.4225,1.412,2.02350625,1.993744
10:17:27,30-Sep-21,1.4225,1.413,2.02350625,1.996569
10:17:27,30-Sep-21,1.437,1.414,2.064969,1.999396
10:17:27,30-Sep-21,1.437,1.414,2.064969,1.999396
10:17:27,30-Sep-21,1.432,1.415,2.050624,2.002225
10:17:27,30-Sep-21,1.432,1.416,2.050624,2.005056
10:17:27,30-Sep-21,1.427,1.417,2.036329,2.007889
10:17:27,30-Sep-21,1.427,1.418,2.036329,2.010724
10:17:27,30-Sep-21,1.4075,1.418,1.98105625,2.010724
10:17:27,30-Sep-21,1.4075,1.419,1.98105625,2.013561
10:17:27,30-Sep-21,1.4025,1.42,1.96700625,2.0164
10:17:27,30-Sep-21,1.4025,1.42,1.96700625,2.0164
10:17:27,30-Sep-21,1.4075,1.421,1.98105625,2.019241
10:17:27,30-Sep-21,1.4075,1.422,1.98105625,2.022084
10:17:27,30-Sep-21,1.4125,1.422,1.99515625,2.022084
10:17:27,30-Sep-21,1.4125,1.423,1.99515625,2.024929
10:17:27,30-Sep-21,1.442,1.424,2.079364,2.027776
10:17:27,30-Sep-21,1.442,1.425,2.079364,2.030625
10:17:27,30-Sep-21,1.4465,1.425,2.09236225,2.030625
10:17:27,30-Sep-21,1.442,1.426,2.079364,2.033476
10:17:27,30-Sep-21,1.442,1.427,2.079364,2.036329
10:17:27,30-Sep-21,1.437,1.427,2.064969,2.036329
10:17:27,30-Sep-21,1.437,1.428,2.064969,2.039184
10:17:27,30-Sep-21,1.4175,1.429,2.00930625,2.042041
10:17:27,30-Sep-21,1.4175,1.43,2.00930625,2.0449
10:17:27,30-Sep-21,1.4075,1.431,1.98105625,2.047761
10:17:27,30-Sep-21,1.4075,1.431,1.98105625,2.047761
10:17:27,30-Sep-21,1.4075,1.432,1.98105625,2.050624
10:17:27,30-Sep-21,1.398,1.433,1.954404,2.053489
10:17:27,30-Sep-21,1.398,1.434,1.954404,2.056356
10:17:27,30-Sep-21,1.4025,1.435,1.96700625,2.059225
10:17:27,30-Sep-21,1.4025,1.435,1.96700625,2.059225
10:17:27,30-Sep-21,1.427,1.436,2.036329,2.062096
10:17:27,30-Sep-21,1.442,1.436,2.079364,2.062096
10:17:27,30-Sep-21,1.4615,1.437,2.13598225,2.064969
10:17:27,30-Sep-21,1.4665,1.437,2.15062225,2.064969
10:17:27,30-Sep-21,1.4665,1.437,2.15062225,2.064969
10:17:27,30-Sep-21,1.4665,1.437,2.15062225,2.064969
10:17:27,30-Sep-21,1.4565,1.436,2.12139225,2.062096
10:17:27,30-Sep-21,1.4515,1.436,2.10685225,2.062096
10:17:27,30-Sep-21,1.4465,1.435,2.09236225,2.059225
10:17:27,30-Sep-21,1.427,1.434,2.036329,2.056356
10:17:27,30-Sep-21,1.427,1.433,2.036329,2.053489
10:17:27,30-Sep-21,1.4125,1.431,1.99515625,2.047761
10:17:27,30-Sep-21,1.4125,1.43,1.99515625,2.0449
10:17:27,30-Sep-21,1.4125,1.428,1.99515625,2.039184
10:17:27,30-Sep-21,1.4125,1.425,1.99515625,2.030625
10:17:27,30-Sep-21,1.442,1.423,2.079364,2.024929
10:17:27,30-Sep-21,1.442,1.42,2.079364,2.0164
10:17:27,30-Sep-21,1.442,1.417,2.079364,2.007889
10:17:27,30-Sep-21,1.442,1.414,2.079364,1.999396
10:17:27,30-Sep-21,1.437,1.411,2.064969,1.990921
10:17:27,30-Sep-21,1.437,1.407,2.064969,1.979649
10:17:27,30-Sep-21,1.432,1.403,2.050624,1.968409
10:17:27,30-Sep-21,1.4175,1.4,2.00930625,1.96
10:17:27,30-Sep-21,1.4175,1.396,2.00930625,1.948816
10:17:27,30-Sep-21,1.393,1.392,1.940449,1.937664
10:17:27,30-Sep-21,1.393,1.388,1.940449,1.926544
10:17:27,30-Sep-21,1.393,1.384,1.940449,1.915456
10:17:27,30-Sep-21,1.3685,1.379,1.87279225,1.901641
10:17:27,30-Sep-21,1.3685,1.375,1.87279225,1.890625
10:17:27,30-Sep-21,1.339,1.372,1.792921,1.882384
10:17:27,30-Sep-21,1.3295,1.368,1.76757025,1.871424
10:17:27,30-Sep-21,1.3295,1.364,1.76757025,1.860496
10:17:27,30-Sep-21,1.339,1.361,1.792921,1.852321
10:17:27,30-Sep-21,1.344,1.358,1.806336,1.844164
10:17:27,30-Sep-21,1.344,1.355,1.806336,1.836025
10:17:27,30-Sep-21,1.354,1.352,1.833316,1.827904
10:17:27,30-Sep-21,1.349,1.349,1.819801,1.819801
10:17:28,30-Sep-21,1.349,1.347,1.819801,1.814409
10:17:28,30-Sep-21,1.349,1.345,1.819801,1.809025
10:17:28,30-Sep-21,1.3345,1.344,1.78089025,1.806336
10:17:28,30-Sep-21,1.3345,1.342,1.78089025,1.800964
10:17:28,30-Sep-21,1.3295,1.341,1.76757025,1.798281
10:17:28,30-Sep-21,1.3295,1.341,1.76757025,1.798281
10:17:28,30-Sep-21,1.315,1.34,1.729225,1.7956
10:17:28,30-Sep-21,1.31,1.34,1.7161,1.7956
10:17:28,30-Sep-21,1.31,1.34,1.7161,1.7956
10:17:28,30-Sep-21,1.31,1.341,1.7161,1.798281
10:17:28,30-Sep-21,1.3195,1.341,1.74108025,1.798281
10:17:28,30-Sep-21,1.349,1.342,1.819801,1.800964
10:17:28,30-Sep-21,1.349,1.343,1.819801,1.803649
10:17:28,30-Sep-21,1.3685,1.345,1.87279225,1.809025
10:17:28,30-Sep-21,1.3685,1.346,1.87279225,1.811716
10:17:28,30-Sep-21,1.388,1.348,1.926544,1.817104
10:17:28,30-Sep-21,1.398,1.35,1.954404,1.8225
10:17:28,30-Sep-21,1.4025,1.352,1.96700625,1.827904
10:17:28,30-Sep-21,1.4025,1.354,1.96700625,1.833316
10:17:28,30-Sep-21,1.4025,1.356,1.96700625,1.838736
10:17:28,30-Sep-21,1.3735,1.359,1.88650225,1.846881
10:17:28,30-Sep-21,1.3735,1.362,1.88650225,1.855044
10:17:28,30-Sep-21,1.3585,1.364,1.84552225,1.860496
10:17:28,30-Sep-21,1.339,1.367,1.792921,1.868689
10:17:28,30-Sep-21,1.339,1.37,1.792921,1.8769
10:17:28,30-Sep-21,1.339,1.373,1.792921,1.885129
10:17:28,30-Sep-21,1.3585,1.377,1.84552225,1.896129
10:17:28,30-Sep-21,1.3585,1.38,1.84552225,1.9044
10:17:28,30-Sep-21,1.3585,1.384,1.84552225,1.915456
10:17:28,30-Sep-21,1.388,1.388,1.926544,1.926544
10:17:28,30-Sep-21,1.4075,1.391,1.98105625,1.934881
10:17:28,30-Sep-21,1.432,1.395,2.050624,1.946025
10:17:28,30-Sep-21,1.432,1.4,2.050624,1.96
10:17:28,30-Sep-21,1.432,1.404,2.050624,1.971216
10:17:28,30-Sep-21,1.4075,1.409,1.98105625,1.985281
10:17:28,30-Sep-21,1.4075,1.413,1.98105625,1.996569
10:17:28,30-Sep-21,1.4075,1.418,1.98105625,2.010724
10:17:28,30-Sep-21,1.4025,1.423,1.96700625,2.024929
10:17:28,30-Sep-21,1.4025,1.428,1.96700625,2.039184
10:17:28,30-Sep-21,1.398,1.433,1.954404,2.053489
10:17:28,30-Sep-21,1.398,1.438,1.954404,2.067844
10:17:28,30-Sep-21,1.4175,1.443,2.00930625,2.082249
10:17:28,30-Sep-21,1.4175,1.449,2.00930625,2.099601
10:17:28,30-Sep-21,1.442,1.454,2.079364,2.114116
10:17:28,30-Sep-21,1.442,1.459,2.079364,2.128681
10:17:28,30-Sep-21,1.442,1.464,2.079364,2.143296
10:17:28,30-Sep-21,1.442,1.47,2.079364,2.1609
10:17:28,30-Sep-21,1.471,1.475,2.163841,2.175625
10:17:28,30-Sep-21,1.471,1.48,2.163841,2.1904
10:17:28,30-Sep-21,1.4955,1.484,2.23652025,2.202256
10:17:28,30-Sep-21,1.4955,1.489,2.23652025,2.217121
10:17:28,30-Sep-21,1.5345,1.493,2.35469025,2.229049
10:17:28,30-Sep-21,1.5345,1.497,2.35469025,2.241009
10:17:28,30-Sep-21,1.5445,1.501,2.38548025,2.253001
10:17:28,30-Sep-21,1.5445,1.505,2.38548025,2.265025
10:17:28,30-Sep-21,1.5445,1.508,2.38548025,2.274064
10:17:28,30-Sep-21,1.5445,1.511,2.38548025,2.283121
10:17:28,30-Sep-21,1.5445,1.513,2.38548025,2.289169
10:17:28,30-Sep-21,1.5445,1.516,2.38548025,2.298256
10:17:28,30-Sep-21,1.525,1.518,2.325625,2.304324
10:17:28,30-Sep-21,1.525,1.519,2.325625,2.307361
10:17:28,30-Sep-21,1.52,1.521,2.3104,2.313441
10:17:28,30-Sep-21,1.52,1.522,2.3104,2.316484
10:17:28,30-Sep-21,1.5055,1.522,2.26653025,2.316484
10:17:28,30-Sep-21,1.5055,1.523,2.26653025,2.319529
10:17:28,30-Sep-21,1.5005,1.523,2.25150025,2.319529
10:17:28,30-Sep-21,1.5005,1.524,2.25150025,2.322576
10:17:28,30-Sep-21,1.5005,1.523,2.25150025,2.319529
10:17:28,30-Sep-21,1.5005,1.523,2.25150025,2.319529
10:17:28,30-Sep-21,1.525,1.523,2.325625,2.319529
10:17:28,30-Sep-21,1.5345,1.522,2.35469025,2.316484
10:17:28,30-Sep-21,1.5345,1.522,2.35469025,2.316484
10:17:28,30-Sep-21,1.5445,1.521,2.38548025,2.313441
10:17:28,30-Sep-21,1.5445,1.521,2.38548025,2.313441
10:17:28,30-Sep-21,1.5395,1.52,2.37006025,2.3104
10:17:28,30-Sep-21,1.525,1.519,2.325625,2.307361
10:17:28,30-Sep-21,1.525,1.518,2.325625,2.304324
10:17:28,30-Sep-21,1.515,1.518,2.295225,2.304324
10:17:28,30-Sep-21,1.515,1.517,2.295225,2.301289
10:17:28,30-Sep-21,1.4955,1.517,2.23652025,2.301289
10:17:28,30-Sep-21,1.486,1.516,2.208196,2.298256
10:17:28,30-Sep-21,1.486,1.516,2.208196,2.298256
10:17:28,30-Sep-21,1.481,1.515,2.193361,2.295225
10:17:28,30-Sep-21,1.486,1.515,2.208196,2.295225
10:17:28,30-Sep-21,1.486,1.515,2.208196,2.295225
10:17:28,30-Sep-21,1.4905,1.515,2.22159025,2.295225
10:17:28,30-Sep-21,1.4905,1.515,2.22159025,2.295225
10:17:28,30-Sep-21,1.525,1.515,2.325625,2.295225
10:17:28,30-Sep-21,1.525,1.516,2.325625,2.298256
10:17:28,30-Sep-21,1.525,1.516,2.325625,2.298256
10:17:28,30-Sep-21,1.53,1.516,2.3409,2.298256
10:17:28,30-Sep-21,1.53,1.517,2.3409,2.301289
10:17:28,30-Sep-21,1.53,1.517,2.3409,2.301289
10:17:28,30-Sep-21,1.53,1.518,2.3409,2.304324
10:17:28,30-Sep-21,1.5395,1.518,2.37006025,2.304324
10:17:28,30-Sep-21,1.525,1.518,2.325625,2.304324
10:17:29,30-Sep-21,1.525,1.519,2.325625,2.307361
10:17:29,30-Sep-21,1.525,1.519,2.325625,2.307361
10:17:29,30-Sep-21,1.5005,1.519,2.25150025,2.307361
10:17:29,30-Sep-21,1.5005,1.519,2.25150025,2.307361
10:17:29,30-Sep-21,1.5005,1.519,2.25150025,2.307361
10:17:29,30-Sep-21,1.5005,1.519,2.25150025,2.307361
10:17:29,30-Sep-21,1.5005,1.519,2.25150025,2.307361
10:17:29,30-Sep-21,1.5345,1.518,2.35469025,2.304324
10:17:29,30-Sep-21,1.5345,1.518,2.35469025,2.304324
10:17:29,30-Sep-21,1.5495,1.517,2.40095025,2.301289
10:17:29,30-Sep-21,1.5495,1.516,2.40095025,2.298256
10:17:29,30-Sep-21,1.5395,1.514,2.37006025,2.292196
10:17:29,30-Sep-21,1.5395,1.513,2.37006025,2.289169
10:17:29,30-Sep-21,1.5005,1.511,2.25150025,2.283121
10:17:29,30-Sep-21,1.5005,1.51,2.25150025,2.2801
10:17:29,30-Sep-21,1.4905,1.507,2.22159025,2.271049
10:17:29,30-Sep-21,1.486,1.505,2.208196,2.265025
10:17:29,30-Sep-21,1.486,1.503,2.208196,2.259009
10:17:29,30-Sep-21,1.481,1.5,2.193361,2.25
10:17:29,30-Sep-21,1.481,1.497,2.193361,2.241009
10:17:29,30-Sep-21,1.486,1.494,2.208196,2.232036
10:17:29,30-Sep-21,1.515,1.491,2.295225,2.223081
10:17:29,30-Sep-21,1.52,1.488,2.3104,2.214144
10:17:29,30-Sep-21,1.52,1.484,2.3104,2.202256
10:17:29,30-Sep-21,1.52,1.481,2.3104,2.193361
10:17:29,30-Sep-21,1.52,1.477,2.3104,2.181529
10:17:29,30-Sep-21,1.5105,1.473,2.28161025,2.169729
10:17:29,30-Sep-21,1.481,1.47,2.193361,2.1609
10:17:29,30-Sep-21,1.4565,1.466,2.12139225,2.149156
10:17:29,30-Sep-21,1.4565,1.462,2.12139225,2.137444
10:17:29,30-Sep-21,1.437,1.458,2.064969,2.125764
10:17:29,30-Sep-21,1.4125,1.454,1.99515625,2.114116
10:17:29,30-Sep-21,1.4125,1.451,1.99515625,2.105401
10:17:29,30-Sep-21,1.4075,1.447,1.98105625,2.093809
10:17:29,30-Sep-21,1.4225,1.444,2.02350625,2.085136
10:17:29,30-Sep-21,1.4225,1.44,2.02350625,2.0736
10:17:29,30-Sep-21,1.427,1.437,2.036329,2.064969
10:17:29,30-Sep-21,1.4465,1.434,2.09236225,2.056356
10:17:29,30-Sep-21,1.442,1.431,2.079364,2.047761
10:17:29,30-Sep-21,1.442,1.428,2.079364,2.039184
10:17:29,30-Sep-21,1.442,1.426,2.079364,2.033476
10:17:29,30-Sep-21,1.432,1.423,2.050624,2.024929
10:17:29,30-Sep-21,1.4225,1.421,2.02350625,2.019241
10:17:29,30-Sep-21,1.4175,1.419,2.00930625,2.013561
10:17:29,30-Sep-21,1.393,1.417,1.940449,2.007889
10:17:29,30-Sep-21,1.393,1.416,1.940449,2.005056
10:17:29,30-Sep-21,1.393,1.414,1.940449,1.999396
10:17:29,30-Sep-21,1.388,1.413,1.926544,1.996569
10:17:29,30-Sep-21,1.388,1.412,1.926544,1.993744
10:17:29,30-Sep-21,1.393,1.411,1.940449,1.990921
10:17:29,30-Sep-21,1.4225,1.41,2.02350625,1.9881
10:17:29,30-Sep-21,1.4225,1.409,2.02350625,1.985281
10:17:29,30-Sep-21,1.427,1.409,2.036329,1.985281
10:17:29,30-Sep-21,1.432,1.408,2.050624,1.982464
10:17:29,30-Sep-21,1.432,1.408,2.050624,1.982464
10:17:29,30-Sep-21,1.432,1.408,2.050624,1.982464
10:17:29,30-Sep-21,1.427,1.408,2.036329,1.982464
10:17:29,30-Sep-21,1.427,1.408,2.036329,1.982464
10:17:29,30-Sep-21,1.4225,1.408,2.02350625,1.982464
10:17:29,30-Sep-21,1.4025,1.408,1.96700625,1.982464
10:17:29,30-Sep-21,1.4025,1.408,1.96700625,1.982464
10:17:29,30-Sep-21,1.398,1.408,1.954404,1.982464
10:17:29,30-Sep-21,1.383,1.408,1.912689,1.982464
10:17:29,30-Sep-21,1.383,1.408,1.912689,1.982464
10:17:29,30-Sep-21,1.383,1.409,1.912689,1.985281
10:17:29,30-Sep-21,1.383,1.409,1.912689,1.985281
10:17:29,30-Sep-21,1.4025,1.409,1.96700625,1.985281
10:17:29,30-Sep-21,1.4125,1.409,1.99515625,1.985281
10:17:29,30-Sep-21,1.437,1.41,2.064969,1.9881
10:17:29,30-Sep-21,1.437,1.41,2.064969,1.9881
10:17:29,30-Sep-21,1.437,1.41,2.064969,1.9881
10:17:29,30-Sep-21,1.432,1.41,2.050624,1.9881
10:17:29,30-Sep-21,1.432,1.41,2.050624,1.9881
10:17:29,30-Sep-21,1.4175,1.411,2.00930625,1.990921
10:17:29,30-Sep-21,1.4125,1.411,1.99515625,1.990921
10:17:29,30-Sep-21,1.4125,1.411,1.99515625,1.990921
10:17:29,30-Sep-21,1.4125,1.411,1.99515625,1.990921
10:17:29,30-Sep-21,1.388,1.411,1.926544,1.990921
10:17:30,30-Sep-21,1.388,1.411,1.926544,1.990921
10:17:30,30-Sep-21,1.383,1.411,1.912689,1.990921
10:17:30,30-Sep-21,1.383,1.411,1.912689,1.990921
10:17:30,30-Sep-21,1.388,1.411,1.926544,1.990921
10:17:30,30-Sep-21,1.4175,1.41,2.00930625,1.9881
10:17:30,30-Sep-21,1.4225,1.41,2.02350625,1.9881
10:17:30,30-Sep-21,1.4225,1.41,2.02350625,1.9881
10:17:30,30-Sep-21,1.4225,1.41,2.02350625,1.9881
10:17:30,30-Sep-21,1.432,1.41,2.050624,1.9881
10:17:30,30-Sep-21,1.427,1.41,2.036329,1.9881
10:17:30,30-Sep-21,1.4225,1.409,2.02350625,1.985281
10:17:30,30-Sep-21,1.4225,1.409,2.02350625,1.985281
10:17:30,30-Sep-21,1.4225,1.409,2.02350625,1.985281
10:17:30,30-Sep-21,1.4025,1.409,1.96700625,1.985281
10:17:30,30-Sep-21,1.398,1.409,1.954404,1.985281
10:17:30,30-Sep-21,1.383,1.408,1.912689,1.982464
10:17:30,30-Sep-21,1.3785,1.408,1.90026225,1.982464
10:17:30,30-Sep-21,1.3785,1.408,1.90026225,1.982464
10:17:30,30-Sep-21,1.393,1.408,1.940449,1.982464
10:17:30,30-Sep-21,1.393,1.407,1.940449,1.979649
10:17:30,30-Sep-21,1.4075,1.407,1.98105625,1.979649
10:17:30,30-Sep-21,1.4175,1.407,2.00930625,1.979649
10:17:30,30-Sep-21,1.4175,1.407,2.00930625,1.979649
10:17:30,30-Sep-21,1.432,1.406,2.050624,1.976836
10:17:30,30-Sep-21,1.432,1.406,2.050624,1.976836
10:17:30,30-Sep-21,1.4225,1.406,2.02350625,1.976836
10:17:30,30-Sep-21,1.4225,1.406,2.02350625,1.976836
10:17:30,30-Sep-21,1.4225,1.406,2.02350625,1.976836
10:17:30,30-Sep-21,1.393,1.406,1.940449,1.976836
10:17:30,30-Sep-21,1.393,1.405,1.940449,1.974025
10:17:30,30-Sep-21,1.388,1.405,1.926544,1.974025
10:17:30,30-Sep-21,1.383,1.405,1.912689,1.974025
10:17:30,30-Sep-21,1.388,1.405,1.926544,1.974025
10:17:30,30-Sep-21,1.388,1.405,1.926544,1.974025
10:17:30,30-Sep-21,1.388,1.405,1.926544,1.974025
10:17:30,30-Sep-21,1.398,1.406,1.954404,1.976836
10:17:30,30-Sep-21,1.427,1.406,2.036329,1.976836
10:17:30,30-Sep-21,1.432,1.406,2.050624,1.976836
10:17:30,30-Sep-21,1.432,1.406,2.050624,1.976836
10:17:30,30-Sep-21,1.432,1.406,2.050624,1.976836
10:17:30,30-Sep-21,1.432,1.407,2.050624,1.979649
10:17:30,30-Sep-21,1.432,1.407,2.050624,1.979649
10:17:30,30-Sep-21,1.432,1.408,2.050624,1.982464
10:17:30,30-Sep-21,1.4125,1.409,1.99515625,1.985281
10:17:30,30-Sep-21,1.4075,1.41,1.98105625,1.9881
10:17:30,30-Sep-21,1.393,1.41,1.940449,1.9881
10:17:30,30-Sep-21,1.393,1.411,1.940449,1.990921
10:17:30,30-Sep-21,1.393,1.413,1.940449,1.996569
10:17:30,30-Sep-21,1.393,1.414,1.940449,1.999396
10:17:30,30-Sep-21,1.393,1.415,1.940449,2.002225
10:17:30,30-Sep-21,1.4125,1.417,1.99515625,2.007889
10:17:30,30-Sep-21,1.427,1.419,2.036329,2.013561
10:17:30,30-Sep-21,1.427,1.421,2.036329,2.019241
10:17:30,30-Sep-21,1.4465,1.423,2.09236225,2.024929
10:17:30,30-Sep-21,1.4465,1.425,2.09236225,2.030625
10:17:30,30-Sep-21,1.4465,1.427,2.09236225,2.036329
10:17:30,30-Sep-21,1.437,1.43,2.064969,2.0449
10:17:30,30-Sep-21,1.437,1.432,2.064969,2.050624
10:17:30,30-Sep-21,1.432,1.435,2.050624,2.059225
10:17:30,30-Sep-21,1.4125,1.438,1.99515625,2.067844
10:17:30,30-Sep-21,1.4075,1.441,1.98105625,2.076481
10:17:30,30-Sep-21,1.4075,1.443,1.98105625,2.082249
10:17:30,30-Sep-21,1.4075,1.446,1.98105625,2.090916
10:17:30,30-Sep-21,1.4075,1.449,1.98105625,2.099601
10:17:30,30-Sep-21,1.4075,1.452,1.98105625,2.108304
10:17:30,30-Sep-21,1.4075,1.454,1.98105625,2.114116
10:17:30,30-Sep-21,1.4225,1.456,2.02350625,2.119936
10:17:30,30-Sep-21,1.4565,1.459,2.12139225,2.128681
10:17:30,30-Sep-21,1.471,1.46,2.163841,2.1316
10:17:30,30-Sep-21,1.471,1.462,2.163841,2.137444
10:17:30,30-Sep-21,1.476,1.463,2.178576,2.140369
10:17:30,30-Sep-21,1.476,1.464,2.178576,2.143296
10:17:30,30-Sep-21,1.476,1.464,2.178576,2.143296
10:17:30,30-Sep-21,1.4565,1.463,2.12139225,2.140369
10:17:30,30-Sep-21,1.4565,1.462,2.12139225,2.137444
10:17:30,30-Sep-21,1.4515,1.461,2.10685225,2.134521
10:17:30,30-Sep-21,1.4515,1.458,2.10685225,2.125764
10:17:30,30-Sep-21,1.4515,1.455,2.10685225,2.117025
10:17:30,30-Sep-21,1.442,1.451,2.079364,2.105401
10:17:30,30-Sep-21,1.442,1.446,2.079364,2.090916
10:17:30,30-Sep-21,1.442,1.441,2.079364,2.076481
10:17:30,30-Sep-21,1.437,1.434,2.064969,2.056356
10:17:31,30-Sep-21,1.437,1.427,2.064969,2.036329
10:17:31,30-Sep-21,1.4565,1.418,2.12139225,2.010724
10:17:31,30-Sep-21,1.4565,1.409,2.12139225,1.985281
10:17:31,30-Sep-21,1.4615,1.399,2.13598225,1.957201
10:17:31,30-Sep-21,1.471,1.388,2.163841,1.926544
10:17:31,30-Sep-21,1.471,1.377,2.163841,1.896129
10:17:31,30-Sep-21,1.471,1.364,2.163841,1.860496
10:17:31,30-Sep-21,1.437,1.351,2.064969,1.825201
10:17:31,30-Sep-21,1.437,1.337,2.064969,1.787569
10:17:31,30-Sep-21,1.3785,1.323,1.90026225,1.750329
10:17:31,30-Sep-21,1.3195,1.309,1.74108025,1.713481
10:17:31,30-Sep-21,1.261,1.294,1.590121,1.674436
10:17:31,30-Sep-21,1.261,1.278,1.590121,1.633284
10:17:31,30-Sep-21,1.207,1.263,1.456849,1.595169
10:17:31,30-Sep-21,1.207,1.247,1.456849,1.555009
10:17:31,30-Sep-21,1.168,1.232,1.364224,1.517824
10:17:31,30-Sep-21,1.168,1.217,1.364224,1.481089
10:17:31,30-Sep-21,1.1435,1.202,1.30759225,1.444804
10:17:31,30-Sep-21,1.129,1.187,1.274641,1.408969
10:17:31,30-Sep-21,1.134,1.173,1.285956,1.375929
10:17:31,30-Sep-21,1.124,1.159,1.263376,1.343281
10:17:31,30-Sep-21,1.124,1.146,1.263376,1.313316
10:17:31,30-Sep-21,1.1195,1.134,1.25328025,1.285956
10:17:31,30-Sep-21,1.1045,1.122,1.21992025,1.258884
10:17:31,30-Sep-21,1.085,1.111,1.177225,1.234321
10:17:31,30-Sep-21,1.0705,1.101,1.14597025,1.212201
10:17:31,30-Sep-21,1.0705,1.092,1.14597025,1.192464
10:17:31,30-Sep-21,1.0605,1.083,1.12466025,1.172889
10:17:31,30-Sep-21,1.046,1.075,1.094116,1.155625
10:17:31,30-Sep-21,1.046,1.068,1.094116,1.140624
10:17:31,30-Sep-21,1.041,1.062,1.083681,1.127844
10:17:31,30-Sep-21,1.046,1.057,1.094116,1.117249
10:17:31,30-Sep-21,1.046,1.053,1.094116,1.108809
10:17:31,30-Sep-21,1.0555,1.049,1.11408025,1.100401
10:17:31,30-Sep-21,1.0555,1.046,1.11408025,1.094116
10:17:31,30-Sep-21,1.0555,1.044,1.11408025,1.089936
10:17:31,30-Sep-21,1.0755,1.042,1.15670025,1.085764
10:17:31,30-Sep-21,1.0755,1.042,1.15670025,1.085764
10:17:31,30-Sep-21,1.0705,1.042,1.14597025,1.085764
10:17:31,30-Sep-21,1.0655,1.042,1.13529025,1.085764
10:17:31,30-Sep-21,1.0655,1.043,1.13529025,1.087849
10:17:31,30-Sep-21,1.0655,1.045,1.13529025,1.092025
10:17:31,30-Sep-21,1.0655,1.047,1.13529025,1.096209
10:17:31,30-Sep-21,1.051,1.05,1.104601,1.1025
10:17:31,30-Sep-21,1.051,1.053,1.104601,1.108809
10:17:31,30-Sep-21,1.051,1.057,1.104601,1.117249
10:17:31,30-Sep-21,1.051,1.06,1.104601,1.1236
10:17:31,30-Sep-21,1.0555,1.065,1.11408025,1.134225
10:17:31,30-Sep-21,1.0555,1.069,1.11408025,1.142761
10:17:31,30-Sep-21,1.08,1.074,1.1664,1.153476
10:17:31,30-Sep-21,1.08,1.079,1.1664,1.164241
10:17:31,30-Sep-21,1.09,1.084,1.1881,1.175056
10:17:31,30-Sep-21,1.095,1.09,1.199025,1.1881
10:17:31,30-Sep-21,1.1095,1.095,1.23099025,1.199025
10:17:31,30-Sep-21,1.1095,1.101,1.23099025,1.212201
10:17:31,30-Sep-21,1.1095,1.107,1.23099025,1.225449
10:17:31,30-Sep-21,1.1195,1.112,1.25328025,1.236544
10:17:31,30-Sep-21,1.1195,1.118,1.25328025,1.249924
10:17:31,30-Sep-21,1.129,1.124,1.274641,1.263376
10:17:31,30-Sep-21,1.129,1.13,1.274641,1.2769
10:17:31,30-Sep-21,1.124,1.136,1.263376,1.290496
10:17:31,30-Sep-21,1.129,1.141,1.274641,1.301881
10:17:31,30-Sep-21,1.129,1.147,1.274641,1.315609
10:17:31,30-Sep-21,1.1485,1.152,1.31905225,1.327104
10:17:31,30-Sep-21,1.1485,1.157,1.31905225,1.338649
10:17:31,30-Sep-21,1.1485,1.162,1.31905225,1.350244
10:17:31,30-Sep-21,1.163,1.167,1.352569,1.361889
10:17:31,30-Sep-21,1.1925,1.172,1.42205625,1.373584
10:17:31,30-Sep-21,1.1975,1.176,1.43400625,1.382976
10:17:31,30-Sep-21,1.1975,1.18,1.43400625,1.3924
10:17:31,30-Sep-21,1.2025,1.184,1.44600625,1.401856
10:17:31,30-Sep-21,1.2025,1.187,1.44600625,1.408969
10:17:31,30-Sep-21,1.1975,1.19,1.43400625,1.4161
10:17:31,30-Sep-21,1.1975,1.193,1.43400625,1.423249
10:17:31,30-Sep-21,1.178,1.195,1.387684,1.428025
10:17:31,30-Sep-21,1.178,1.197,1.387684,1.432809
10:17:31,30-Sep-21,1.178,1.199,1.387684,1.437601
10:17:31,30-Sep-21,1.173,1.2,1.375929,1.44
10:17:31,30-Sep-21,1.173,1.2,1.375929,1.44
10:17:31,30-Sep-21,1.173,1.2,1.375929,1.44
10:17:31,30-Sep-21,1.173,1.199,1.375929,1.437601
10:17:31,30-Sep-21,1.173,1.198,1.375929,1.435204
10:17:31,30-Sep-21,1.1875,1.197,1.41015625,1.432809
10:17:31,30-Sep-21,1.1875,1.194,1.41015625,1.425636
10:17:32,30-Sep-21,1.1925,1.192,1.42205625,1.420864
10:17:32,30-Sep-21,1.1975,1.188,1.43400625,1.411344
10:17:32,30-Sep-21,1.1975,1.184,1.43400625,1.401856
10:17:32,30-Sep-21,1.1975,1.179,1.43400625,1.390041
10:17:32,30-Sep-21,1.1925,1.174,1.42205625,1.378276
10:17:32,30-Sep-21,1.1925,1.168,1.42205625,1.364224
10:17:32,30-Sep-21,1.183,1.161,1.399489,1.347921
10:17:32,30-Sep-21,1.163,1.154,1.352569,1.331716
10:17:32,30-Sep-21,1.163,1.146,1.352569,1.313316
10:17:32,30-Sep-21,1.1485,1.137,1.31905225,1.292769
10:17:32,30-Sep-21,1.129,1.128,1.274641,1.272384
10:17:32,30-Sep-21,1.129,1.118,1.274641,1.249924
10:17:32,30-Sep-21,1.1195,1.108,1.25328025,1.227664
10:17:32,30-Sep-21,1.1195,1.097,1.25328025,1.203409
10:17:32,30-Sep-21,1.1195,1.086,1.25328025,1.179396
10:17:32,30-Sep-21,1.1095,1.075,1.23099025,1.155625
10:17:32,30-Sep-21,1.0995,1.063,1.20890025,1.129969
10:17:32,30-Sep-21,1.09,1.051,1.1881,1.104601
10:17:32,30-Sep-21,1.09,1.038,1.1881,1.077444
10:17:32,30-Sep-21,1.0605,1.026,1.12466025,1.052676
10:17:32,30-Sep-21,1.0265,1.013,1.05370225,1.026169
10:17:32,30-Sep-21,1.0265,1,1.05370225,1
10:17:32,30-Sep-21,0.992,0.988,0.984064,0.976144
10:17:32,30-Sep-21,0.953,0.976,0.908209,0.952576
10:17:32,30-Sep-21,0.953,0.964,0.908209,0.929296
10:17:32,30-Sep-21,0.9285,0.952,0.86211225,0.906304
10:17:32,30-Sep-21,0.8995,0.94,0.80910025,0.8836
10:17:32,30-Sep-21,0.88,0.929,0.7744,0.863041
10:17:32,30-Sep-21,0.86,0.919,0.7396,0.844561
10:17:32,30-Sep-21,0.86,0.909,0.7396,0.826281
10:17:32,30-Sep-21,0.86,0.899,0.7396,0.808201
10:17:32,30-Sep-21,0.8555,0.891,0.73188025,0.793881
10:17:32,30-Sep-21,0.8505,0.883,0.72335025,0.779689
10:17:32,30-Sep-21,0.8455,0.875,0.71487025,0.765625
10:17:32,30-Sep-21,0.831,0.868,0.690561,0.753424
10:17:32,30-Sep-21,0.831,0.862,0.690561,0.743044
10:17:32,30-Sep-21,0.826,0.857,0.682276,0.734449
10:17:32,30-Sep-21,0.821,0.852,0.674041,0.725904
10:17:32,30-Sep-21,0.826,0.848,0.682276,0.719104
10:17:32,30-Sep-21,0.8405,0.844,0.70644025,0.712336
10:17:32,30-Sep-21,0.8405,0.841,0.70644025,0.707281
10:17:32,30-Sep-21,0.8405,0.839,0.70644025,0.703921
10:17:32,30-Sep-21,0.8505,0.837,0.72335025,0.700569
10:17:32,30-Sep-21,0.8505,0.835,0.72335025,0.697225
10:17:32,30-Sep-21,0.86,0.834,0.7396,0.695556
10:17:32,30-Sep-21,0.86,0.833,0.7396,0.693889
10:17:32,30-Sep-21,0.86,0.833,0.7396,0.693889
10:17:32,30-Sep-21,0.8555,0.832,0.73188025,0.692224
10:17:32,30-Sep-21,0.8555,0.833,0.73188025,0.693889
10:17:32,30-Sep-21,0.8555,0.833,0.73188025,0.693889
10:17:32,30-Sep-21,0.8555,0.833,0.73188025,0.693889
10:17:32,30-Sep-21,0.8555,0.834,0.73188025,0.695556
10:17:32,30-Sep-21,0.8455,0.834,0.71487025,0.695556
10:17:32,30-Sep-21,0.8405,0.835,0.70644025,0.697225
10:17:32,30-Sep-21,0.8405,0.835,0.70644025,0.697225
10:17:32,30-Sep-21,0.836,0.836,0.698896,0.698896
10:17:32,30-Sep-21,0.836,0.836,0.698896,0.698896
10:17:32,30-Sep-21,0.836,0.837,0.698896,0.700569
10:17:32,30-Sep-21,0.836,0.837,0.698896,0.700569
10:17:32,30-Sep-21,0.836,0.837,0.698896,0.700569
10:17:32,30-Sep-21,0.836,0.837,0.698896,0.700569
10:17:32,30-Sep-21,0.8505,0.838,0.72335025,0.702244
10:17:32,30-Sep-21,0.8505,0.837,0.72335025,0.700569
10:17:32,30-Sep-21,0.8555,0.837,0.73188025,0.700569
10:17:32,30-Sep-21,0.8555,0.837,0.73188025,0.700569
10:17:32,30-Sep-21,0.8455,0.836,0.71487025,0.698896
10:17:32,30-Sep-21,0.8405,0.836,0.70644025,0.698896
10:17:32,30-Sep-21,0.8405,0.835,0.70644025,0.697225
10:17:32,30-Sep-21,0.8405,0.834,0.70644025,0.695556
10:17:32,30-Sep-21,0.8115,0.833,0.65853225,0.693889
10:17:32,30-Sep-21,0.8115,0.832,0.65853225,0.692224
10:17:32,30-Sep-21,0.8115,0.83,0.65853225,0.6889
10:17:32,30-Sep-21,0.8015,0.829,0.64240225,0.687241
10:17:32,30-Sep-21,0.8015,0.827,0.64240225,0.683929
10:17:32,30-Sep-21,0.7965,0.826,0.63441225,0.682276
10:17:32,30-Sep-21,0.7965,0.824,0.63441225,0.678976
10:17:32,30-Sep-21,0.8115,0.822,0.65853225,0.675684
10:17:32,30-Sep-21,0.8115,0.82,0.65853225,0.6724
10:17:32,30-Sep-21,0.831,0.817,0.690561,0.667489
10:17:32,30-Sep-21,0.831,0.815,0.690561,0.664225
10:17:33,30-Sep-21,0.831,0.813,0.690561,0.660969
10:17:33,30-Sep-21,0.821,0.81,0.674041,0.6561
10:17:33,30-Sep-21,0.821,0.807,0.674041,0.651249
10:17:33,30-Sep-21,0.821,0.805,0.674041,0.648025
10:17:33,30-Sep-21,0.8115,0.802,0.65853225,0.643204
10:17:33,30-Sep-21,0.8115,0.798,0.65853225,0.636804
10:17:33,30-Sep-21,0.792,0.795,0.627264,0.632025
10:17:33,30-Sep-21,0.782,0.792,0.611524,0.627264
10:17:33,30-Sep-21,0.782,0.789,0.611524,0.622521
10:17:33,30-Sep-21,0.777,0.785,0.603729,0.616225
10:17:33,30-Sep-21,0.772,0.781,0.595984,0.609961
10:17:33,30-Sep-21,0.772,0.778,0.595984,0.605284
10:17:33,30-Sep-21,0.772,0.774,0.595984,0.599076
10:17:33,30-Sep-21,0.782,0.77,0.611524,0.5929
10:17:33,30-Sep-21,0.777,0.766,0.603729,0.586756
10:17:33,30-Sep-21,0.777,0.762,0.603729,0.580644
10:17:33,30-Sep-21,0.772,0.758,0.595984,0.574564
10:17:33,30-Sep-21,0.7675,0.754,0.58905625,0.568516
10:17:33,30-Sep-21,0.7675,0.75,0.58905625,0.5625
10:17:33,30-Sep-21,0.7675,0.747,0.58905625,0.558009
10:17:33,30-Sep-21,0.7525,0.743,0.56625625,0.552049
10:17:33,30-Sep-21,0.7525,0.739,0.56625625,0.546121
10:17:33,30-Sep-21,0.733,0.735,0.537289,0.540225
10:17:33,30-Sep-21,0.7235,0.731,0.52345225,0.534361
10:17:33,30-Sep-21,0.704,0.728,0.495616,0.529984
10:17:33,30-Sep-21,0.704,0.724,0.495616,0.524176
10:17:33,30-Sep-21,0.694,0.721,0.481636,0.519841
10:17:33,30-Sep-21,0.694,0.718,0.481636,0.515524
10:17:33,30-Sep-21,0.694,0.715,0.481636,0.511225
10:17:33,30-Sep-21,0.694,0.712,0.481636,0.506944
10:17:33,30-Sep-21,0.694,0.709,0.481636,0.502681
10:17:33,30-Sep-21,0.704,0.707,0.495616,0.499849
10:17:33,30-Sep-21,0.704,0.704,0.495616,0.495616
10:17:33,30-Sep-21,0.704,0.702,0.495616,0.492804
10:17:33,30-Sep-21,0.704,0.7,0.495616,0.49
10:17:33,30-Sep-21,0.704,0.698,0.495616,0.487204
10:17:33,30-Sep-21,0.704,0.696,0.495616,0.484416
10:17:33,30-Sep-21,0.699,0.695,0.488601,0.483025
10:17:33,30-Sep-21,0.699,0.693,0.488601,0.480249
10:17:33,30-Sep-21,0.689,0.692,0.474721,0.478864
10:17:33,30-Sep-21,0.6845,0.69,0.46854025,0.4761
10:17:33,30-Sep-21,0.6795,0.689,0.46172025,0.474721
10:17:33,30-Sep-21,0.6795,0.688,0.46172025,0.473344
10:17:33,30-Sep-21,0.6795,0.687,0.46172025,0.471969
10:17:33,30-Sep-21,0.6795,0.686,0.46172025,0.470596
10:17:33,30-Sep-21,0.6795,0.685,0.46172025,0.469225
10:17:33,30-Sep-21,0.694,0.684,0.481636,0.467856
10:17:33,30-Sep-21,0.699,0.683,0.488601,0.466489
10:17:33,30-Sep-21,0.704,0.683,0.495616,0.466489
10:17:33,30-Sep-21,0.704,0.682,0.495616,0.465124
10:17:33,30-Sep-21,0.704,0.681,0.495616,0.463761
10:17:33,30-Sep-21,0.704,0.68,0.495616,0.4624
10:17:33,30-Sep-21,0.699,0.68,0.488601,0.4624
10:17:33,30-Sep-21,0.699,0.679,0.488601,0.461041
10:17:33,30-Sep-21,0.6845,0.678,0.46854025,0.459684
10:17:33,30-Sep-21,0.6695,0.678,0.44823025,0.459684
10:17:33,30-Sep-21,0.66,0.677,0.4356,0.458329
10:17:33,30-Sep-21,0.66,0.676,0.4356,0.456976
10:17:33,30-Sep-21,0.66,0.676,0.4356,0.456976
10:17:33,30-Sep-21,0.65,0.675,0.4225,0.455625
10:17:33,30-Sep-21,0.655,0.675,0.429025,0.455625
10:17:33,30-Sep-21,0.655,0.674,0.429025,0.454276
10:17:33,30-Sep-21,0.6745,0.674,0.45495025,0.454276
10:17:33,30-Sep-21,0.6745,0.673,0.45495025,0.452929
10:17:33,30-Sep-21,0.6795,0.673,0.46172025,0.452929
10:17:33,30-Sep-21,0.6795,0.672,0.46172025,0.451584
10:17:33,30-Sep-21,0.6795,0.672,0.46172025,0.451584
10:17:33,30-Sep-21,0.6795,0.672,0.46172025,0.451584
10:17:33,30-Sep-21,0.6795,0.671,0.46172025,0.450241
10:17:33,30-Sep-21,0.6745,0.671,0.45495025,0.450241
10:17:33,30-Sep-21,0.6645,0.671,0.44156025,0.450241
10:17:33,30-Sep-21,0.6645,0.67,0.44156025,0.4489
10:17:33,30-Sep-21,0.66,0.67,0.4356,0.4489
10:17:33,30-Sep-21,0.66,0.67,0.4356,0.4489
10:17:33,30-Sep-21,0.66,0.67,0.4356,0.4489
10:17:33,30-Sep-21,0.66,0.669,0.4356,0.447561
10:17:33,30-Sep-21,0.66,0.669,0.4356,0.447561
10:17:33,30-Sep-21,0.6745,0.669,0.45495025,0.447561
10:17:33,30-Sep-21,0.6845,0.669,0.46854025,0.447561
10:17:33,30-Sep-21,0.6845,0.668,0.46854025,0.446224
10:17:33,30-Sep-21,0.6795,0.668,0.46172025,0.446224
10:17:33,30-Sep-21,0.6795,0.668,0.46172025,0.446224
10:17:33,30-Sep-21,0.6845,0.668,0.46854025,0.446224
10:17:33,30-Sep-21,0.6795,0.667,0.46172025,0.444889
10:17:33,30-Sep-21,0.6795,0.667,0.46172025,0.444889
10:17:34,30-Sep-21,0.6695,0.667,0.44823025,0.444889
10:17:34,30-Sep-21,0.66,0.667,0.4356,0.444889
10:17:34,30-Sep-21,0.655,0.666,0.429025,0.443556
10:17:34,30-Sep-21,0.655,0.666,0.429025,0.443556
10:17:34,30-Sep-21,0.65,0.666,0.4225,0.443556
10:17:34,30-Sep-21,0.65,0.665,0.4225,0.442225
10:17:34,30-Sep-21,0.65,0.665,0.4225,0.442225
10:17:34,30-Sep-21,0.655,0.665,0.429025,0.442225
10:17:34,30-Sep-21,0.66,0.665,0.4356,0.442225
10:17:34,30-Sep-21,0.66,0.665,0.4356,0.442225
10:17:34,30-Sep-21,0.6745,0.664,0.45495025,0.440896
10:17:34,30-Sep-21,0.6745,0.664,0.45495025,0.440896
10:17:34,30-Sep-21,0.6745,0.664,0.45495025,0.440896
10:17:34,30-Sep-21,0.6745,0.664,0.45495025,0.440896
10:17:34,30-Sep-21,0.6695,0.663,0.44823025,0.439569
10:17:34,30-Sep-21,0.6695,0.663,0.44823025,0.439569
10:17:34,30-Sep-21,0.6695,0.663,0.44823025,0.439569
10:17:34,30-Sep-21,0.66,0.663,0.4356,0.439569
10:17:34,30-Sep-21,0.66,0.663,0.4356,0.439569
10:17:34,30-Sep-21,0.66,0.663,0.4356,0.439569
10:17:34,30-Sep-21,0.65,0.662,0.4225,0.438244
10:17:34,30-Sep-21,0.65,0.662,0.4225,0.438244
10:17:34,30-Sep-21,0.65,0.662,0.4225,0.438244
10:17:34,30-Sep-21,0.65,0.662,0.4225,0.438244
10:17:34,30-Sep-21,0.65,0.662,0.4225,0.438244
10:17:34,30-Sep-21,0.6645,0.661,0.44156025,0.436921
10:17:34,30-Sep-21,0.6645,0.661,0.44156025,0.436921
10:17:34,30-Sep-21,0.6645,0.661,0.44156025,0.436921
10:17:34,30-Sep-21,0.6695,0.661,0.44823025,0.436921
10:17:34,30-Sep-21,0.6745,0.66,0.45495025,0.4356
10:17:34,30-Sep-21,0.6745,0.66,0.45495025,0.4356
10:17:34,30-Sep-21,0.6745,0.66,0.45495025,0.4356
10:17:34,30-Sep-21,0.6745,0.659,0.45495025,0.434281
10:17:34,30-Sep-21,0.6645,0.659,0.44156025,0.434281
10:17:34,30-Sep-21,0.6645,0.659,0.44156025,0.434281
10:17:34,30-Sep-21,0.6645,0.658,0.44156025,0.432964
10:17:34,30-Sep-21,0.66,0.658,0.4356,0.432964
10:17:34,30-Sep-21,0.65,0.658,0.4225,0.432964
10:17:34,30-Sep-21,0.645,0.657,0.416025,0.431649
10:17:34,30-Sep-21,0.6405,0.657,0.41024025,0.431649
10:17:34,30-Sep-21,0.6405,0.656,0.41024025,0.430336
10:17:34,30-Sep-21,0.645,0.656,0.416025,0.430336
10:17:34,30-Sep-21,0.645,0.656,0.416025,0.430336
10:17:34,30-Sep-21,0.66,0.655,0.4356,0.429025
10:17:34,30-Sep-21,0.66,0.655,0.4356,0.429025
10:17:34,30-Sep-21,0.6645,0.655,0.44156025,0.429025
10:17:34,30-Sep-21,0.66,0.655,0.4356,0.429025
10:17:34,30-Sep-21,0.66,0.654,0.4356,0.427716
10:17:34,30-Sep-21,0.66,0.654,0.4356,0.427716
10:17:34,30-Sep-21,0.65,0.654,0.4225,0.427716
10:17:34,30-Sep-21,0.65,0.654,0.4225,0.427716
10:17:34,30-Sep-21,0.645,0.654,0.416025,0.427716
10:17:34,30-Sep-21,0.645,0.653,0.416025,0.426409
10:17:34,30-Sep-21,0.645,0.653,0.416025,0.426409
10:17:34,30-Sep-21,0.6405,0.653,0.41024025,0.426409
10:17:34,30-Sep-21,0.6405,0.653,0.41024025,0.426409
10:17:34,30-Sep-21,0.645,0.653,0.416025,0.426409
10:17:34,30-Sep-21,0.645,0.653,0.416025,0.426409
10:17:34,30-Sep-21,0.655,0.653,0.429025,0.426409
10:17:34,30-Sep-21,0.6645,0.652,0.44156025,0.425104
10:17:34,30-Sep-21,0.6645,0.652,0.44156025,0.425104
10:17:34,30-Sep-21,0.6745,0.652,0.45495025,0.425104
10:17:34,30-Sep-21,0.6695,0.652,0.44823025,0.425104
10:17:34,30-Sep-21,0.6695,0.652,0.44823025,0.425104
10:17:34,30-Sep-21,0.6645,0.652,0.44156025,0.425104
10:17:34,30-Sep-21,0.655,0.651,0.429025,0.423801
10:17:34,30-Sep-21,0.655,0.651,0.429025,0.423801
10:17:34,30-Sep-21,0.65,0.651,0.4225,0.423801
10:17:34,30-Sep-21,0.6355,0.651,0.40386025,0.423801
10:17:34,30-Sep-21,0.6355,0.651,0.40386025,0.423801
10:17:34,30-Sep-21,0.6305,0.65,0.39753025,0.4225
10:17:34,30-Sep-21,0.6405,0.65,0.41024025,0.4225
10:17:34,30-Sep-21,0.6405,0.65,0.41024025,0.4225
10:17:34,30-Sep-21,0.66,0.65,0.4356,0.4225
10:17:34,30-Sep-21,0.66,0.65,0.4356,0.4225
10:17:34,30-Sep-21,0.6645,0.649,0.44156025,0.421201
10:17:34,30-Sep-21,0.6645,0.649,0.44156025,0.421201
10:17:34,30-Sep-21,0.66,0.649,0.4356,0.421201
10:17:34,30-Sep-21,0.66,0.649,0.4356,0.421201
10:17:34,30-Sep-21,0.66,0.649,0.4356,0.421201
10:17:35,30-Sep-21,0.645,0.65,0.416025,0.4225
10:17:35,30-Sep-21,0.6405,0.65,0.41024025,0.4225
10:17:35,30-Sep-21,0.6355,0.65,0.40386025,0.4225
10:17:35,30-Sep-21,0.6355,0.65,0.40386025,0.4225
10:17:35,30-Sep-21,0.6355,0.651,0.40386025,0.423801
10:17:35,30-Sep-21,0.65,0.651,0.4225,0.423801
10:17:35,30-Sep-21,0.655,0.652,0.429025,0.425104
10:17:35,30-Sep-21,0.655,0.652,0.429025,0.425104
10:17:35,30-Sep-21,0.655,0.653,0.429025,0.426409
10:17:35,30-Sep-21,0.66,0.654,0.4356,0.427716
10:17:35,30-Sep-21,0.66,0.655,0.4356,0.429025
10:17:35,30-Sep-21,0.66,0.656,0.4356,0.430336
10:17:35,30-Sep-21,0.655,0.657,0.429025,0.431649
10:17:35,30-Sep-21,0.645,0.658,0.416025,0.432964
10:17:35,30-Sep-21,0.645,0.659,0.416025,0.434281
10:17:35,30-Sep-21,0.645,0.66,0.416025,0.4356
10:17:35,30-Sep-21,0.65,0.661,0.4225,0.436921
10:17:35,30-Sep-21,0.65,0.662,0.4225,0.438244
10:17:35,30-Sep-21,0.65,0.664,0.4225,0.440896
10:17:35,30-Sep-21,0.65,0.665,0.4225,0.442225
10:17:35,30-Sep-21,0.66,0.666,0.4356,0.443556
10:17:35,30-Sep-21,0.6645,0.668,0.44156025,0.446224
10:17:35,30-Sep-21,0.6645,0.669,0.44156025,0.447561
10:17:35,30-Sep-21,0.6845,0.67,0.46854025,0.4489
10:17:35,30-Sep-21,0.6845,0.671,0.46854025,0.450241
10:17:35,30-Sep-21,0.689,0.672,0.474721,0.451584
10:17:35,30-Sep-21,0.689,0.673,0.474721,0.452929
10:17:35,30-Sep-21,0.6845,0.674,0.46854025,0.454276
10:17:35,30-Sep-21,0.6845,0.675,0.46854025,0.455625
10:17:35,30-Sep-21,0.6845,0.675,0.46854025,0.455625
10:17:35,30-Sep-21,0.6795,0.676,0.46172025,0.456976
10:17:35,30-Sep-21,0.6745,0.676,0.45495025,0.456976
10:17:35,30-Sep-21,0.6745,0.676,0.45495025,0.456976
10:17:35,30-Sep-21,0.6695,0.676,0.44823025,0.456976
10:17:35,30-Sep-21,0.6695,0.676,0.44823025,0.456976
10:17:35,30-Sep-21,0.6695,0.676,0.44823025,0.456976
10:17:35,30-Sep-21,0.6745,0.676,0.45495025,0.456976
10:17:35,30-Sep-21,0.6745,0.675,0.45495025,0.455625
10:17:35,30-Sep-21,0.6745,0.675,0.45495025,0.455625
10:17:35,30-Sep-21,0.6795,0.674,0.46172025,0.454276
10:17:35,30-Sep-21,0.6795,0.673,0.46172025,0.452929
10:17:35,30-Sep-21,0.6795,0.672,0.46172025,0.451584
10:17:35,30-Sep-21,0.6845,0.671,0.46854025,0.450241
10:17:35,30-Sep-21,0.6795,0.67,0.46172025,0.4489
10:17:35,30-Sep-21,0.6795,0.668,0.46172025,0.446224
10:17:35,30-Sep-21,0.6695,0.667,0.44823025,0.444889
10:17:35,30-Sep-21,0.6695,0.665,0.44823025,0.442225
10:17:35,30-Sep-21,0.6645,0.664,0.44156025,0.440896
10:17:35,30-Sep-21,0.6645,0.663,0.44156025,0.439569
10:17:35,30-Sep-21,0.66,0.661,0.4356,0.436921
10:17:35,30-Sep-21,0.66,0.66,0.4356,0.4356
10:17:35,30-Sep-21,0.655,0.659,0.429025,0.434281
10:17:35,30-Sep-21,0.66,0.658,0.4356,0.432964
10:17:35,30-Sep-21,0.66,0.657,0.4356,0.431649
10:17:35,30-Sep-21,0.6695,0.656,0.44823025,0.430336
10:17:35,30-Sep-21,0.6695,0.655,0.44823025,0.429025
10:17:35,30-Sep-21,0.6695,0.655,0.44823025,0.429025
10:17:35,30-Sep-21,0.6645,0.655,0.44156025,0.429025
10:17:35,30-Sep-21,0.6645,0.655,0.44156025,0.429025
10:17:35,30-Sep-21,0.6645,0.655,0.44156025,0.429025
10:17:35,30-Sep-21,0.66,0.656,0.4356,0.430336
10:17:35,30-Sep-21,0.66,0.657,0.4356,0.431649
10:17:35,30-Sep-21,0.655,0.658,0.429025,0.432964
10:17:35,30-Sep-21,0.655,0.66,0.429025,0.4356
10:17:35,30-Sep-21,0.65,0.662,0.4225,0.438244
10:17:35,30-Sep-21,0.6405,0.664,0.41024025,0.440896
10:17:35,30-Sep-21,0.6405,0.667,0.41024025,0.444889
