Time,Date,EMG Value (V),Filtered Value (V),,
10:21:46,30-Sep-21,1.261,1.266,1.590121,1.602756
10:21:46,30-Sep-21,1.251,1.262,1.565001,1.592644
10:21:46,30-Sep-21,1.251,1.257,1.565001,1.580049
10:21:46,30-Sep-21,1.251,1.253,1.565001,1.570009
10:21:46,30-Sep-21,1.2415,1.248,1.54132225,1.557504
10:21:46,30-Sep-21,1.256,1.242,1.577536,1.542564
10:21:46,30-Sep-21,1.256,1.236,1.577536,1.527696
10:21:46,30-Sep-21,1.256,1.23,1.577536,1.5129
10:21:46,30-Sep-21,1.256,1.223,1.577536,1.495729
10:21:46,30-Sep-21,1.256,1.215,1.577536,1.476225
10:21:46,30-Sep-21,1.251,1.208,1.565001,1.459264
10:21:46,30-Sep-21,1.251,1.2,1.565001,1.44
10:21:46,30-Sep-21,1.2315,1.191,1.51659225,1.418481
10:21:46,30-Sep-21,1.2315,1.182,1.51659225,1.397124
10:21:46,30-Sep-21,1.1925,1.173,1.42205625,1.375929
10:21:46,30-Sep-21,1.1925,1.163,1.42205625,1.352569
10:21:46,30-Sep-21,1.1435,1.154,1.30759225,1.331716
10:21:46,30-Sep-21,1.1435,1.144,1.30759225,1.308736
10:21:46,30-Sep-21,1.1095,1.133,1.23099025,1.283689
10:21:46,30-Sep-21,1.1095,1.123,1.23099025,1.261129
10:21:46,30-Sep-21,1.09,1.113,1.1881,1.238769
10:21:46,30-Sep-21,1.09,1.102,1.1881,1.214404
10:21:46,30-Sep-21,1.09,1.092,1.1881,1.192464
10:21:46,30-Sep-21,1.0655,1.081,1.13529025,1.168561
10:21:46,30-Sep-21,1.036,1.071,1.073296,1.147041
10:21:46,30-Sep-21,1.036,1.061,1.073296,1.125721
10:21:46,30-Sep-21,1.0265,1.05,1.05370225,1.1025
10:21:46,30-Sep-21,1.0265,1.04,1.05370225,1.0816
10:21:46,30-Sep-21,1.0265,1.031,1.05370225,1.062961
10:21:46,30-Sep-21,1.0265,1.021,1.05370225,1.042441
10:21:46,30-Sep-21,1.002,1.012,1.004004,1.024144
10:21:46,30-Sep-21,0.9825,1.003,0.96530625,1.006009
10:21:46,30-Sep-21,0.9825,0.995,0.96530625,0.990025
10:21:46,30-Sep-21,0.9825,0.987,0.96530625,0.974169
10:21:46,30-Sep-21,0.9825,0.979,0.96530625,0.958441
10:21:46,30-Sep-21,0.9675,0.972,0.93605625,0.944784
10:21:46,30-Sep-21,0.9675,0.965,0.93605625,0.931225
10:21:46,30-Sep-21,0.9675,0.958,0.93605625,0.917764
10:21:46,30-Sep-21,0.9435,0.952,0.89019225,0.906304
10:21:46,30-Sep-21,0.9435,0.946,0.89019225,0.894916
10:21:46,30-Sep-21,0.9435,0.941,0.89019225,0.885481
10:21:46,30-Sep-21,0.9285,0.936,0.86211225,0.876096
10:21:46,30-Sep-21,0.9285,0.932,0.86211225,0.868624
10:21:46,30-Sep-21,0.9285,0.928,0.86211225,0.861184
10:21:46,30-Sep-21,0.9285,0.924,0.86211225,0.853776
10:21:46,30-Sep-21,0.9285,0.921,0.86211225,0.848241
10:21:46,30-Sep-21,0.914,0.919,0.835396,0.844561
10:21:46,30-Sep-21,0.914,0.916,0.835396,0.839056
10:21:46,30-Sep-21,0.914,0.914,0.835396,0.835396
10:21:46,30-Sep-21,0.8995,0.913,0.80910025,0.833569
10:21:46,30-Sep-21,0.8995,0.912,0.80910025,0.831744
10:21:46,30-Sep-21,0.8995,0.911,0.80910025,0.829921
10:21:46,30-Sep-21,0.8945,0.91,0.80013025,0.8281
10:21:46,30-Sep-21,0.8945,0.91,0.80013025,0.8281
10:21:46,30-Sep-21,0.8945,0.91,0.80013025,0.8281
10:21:46,30-Sep-21,0.909,0.91,0.826281,0.8281
10:21:46,30-Sep-21,0.909,0.911,0.826281,0.829921
10:21:46,30-Sep-21,0.909,0.911,0.826281,0.829921
10:21:46,30-Sep-21,0.909,0.912,0.826281,0.831744
10:21:46,30-Sep-21,0.909,0.913,0.826281,0.833569
10:21:46,30-Sep-21,0.924,0.914,0.853776,0.835396
10:21:46,30-Sep-21,0.924,0.915,0.853776,0.837225
10:21:46,30-Sep-21,0.924,0.916,0.853776,0.839056
10:21:46,30-Sep-21,0.9385,0.917,0.88078225,0.840889
10:21:46,30-Sep-21,0.9385,0.918,0.88078225,0.842724
10:21:46,30-Sep-21,0.9385,0.919,0.88078225,0.844561
10:21:46,30-Sep-21,0.9435,0.921,0.89019225,0.848241
10:21:46,30-Sep-21,0.9435,0.922,0.89019225,0.850084
10:21:46,30-Sep-21,0.9435,0.923,0.89019225,0.851929
10:21:46,30-Sep-21,0.9385,0.924,0.88078225,0.853776
10:21:46,30-Sep-21,0.9385,0.925,0.88078225,0.855625
10:21:46,30-Sep-21,0.9385,0.925,0.88078225,0.855625
10:21:46,30-Sep-21,0.9335,0.926,0.87142225,0.857476
10:21:46,30-Sep-21,0.9335,0.927,0.87142225,0.859329
10:21:46,30-Sep-21,0.9335,0.927,0.87142225,0.859329
10:21:46,30-Sep-21,0.9335,0.928,0.87142225,0.861184
10:21:46,30-Sep-21,0.9335,0.928,0.87142225,0.861184
10:21:46,30-Sep-21,0.9285,0.929,0.86211225,0.863041
10:21:46,30-Sep-21,0.9285,0.929,0.86211225,0.863041
10:21:46,30-Sep-21,0.9285,0.929,0.86211225,0.863041
10:21:46,30-Sep-21,0.919,0.93,0.844561,0.8649
10:21:46,30-Sep-21,0.919,0.93,0.844561,0.8649
10:21:46,30-Sep-21,0.914,0.93,0.835396,0.8649
10:21:46,30-Sep-21,0.914,0.93,0.835396,0.8649
10:21:46,30-Sep-21,0.914,0.931,0.835396,0.866761
10:21:46,30-Sep-21,0.914,0.931,0.835396,0.866761
10:21:46,30-Sep-21,0.914,0.931,0.835396,0.866761
10:21:46,30-Sep-21,0.914,0.931,0.835396,0.866761
10:21:46,30-Sep-21,0.914,0.931,0.835396,0.866761
10:21:46,30-Sep-21,0.914,0.932,0.835396,0.868624
10:21:46,30-Sep-21,0.914,0.932,0.835396,0.868624
10:21:46,30-Sep-21,0.919,0.932,0.844561,0.868624
10:21:46,30-Sep-21,0.919,0.932,0.844561,0.868624
10:21:46,30-Sep-21,0.919,0.932,0.844561,0.868624
10:21:46,30-Sep-21,0.9385,0.932,0.88078225,0.868624
10:21:46,30-Sep-21,0.9385,0.932,0.88078225,0.868624
10:21:46,30-Sep-21,0.9435,0.932,0.89019225,0.868624
10:21:46,30-Sep-21,0.9435,0.932,0.89019225,0.868624
10:21:46,30-Sep-21,0.9435,0.932,0.89019225,0.868624
10:21:46,30-Sep-21,0.9435,0.932,0.89019225,0.868624
10:21:46,30-Sep-21,0.9435,0.932,0.89019225,0.868624
10:21:46,30-Sep-21,0.9435,0.931,0.89019225,0.866761
10:21:46,30-Sep-21,0.9435,0.931,0.89019225,0.866761
10:21:46,30-Sep-21,0.9435,0.93,0.89019225,0.8649
10:21:46,30-Sep-21,0.9435,0.929,0.89019225,0.863041
10:21:47,30-Sep-21,0.9385,0.928,0.88078225,0.861184
10:21:47,30-Sep-21,0.9385,0.927,0.88078225,0.859329
10:21:47,30-Sep-21,0.924,0.926,0.853776,0.857476
10:21:47,30-Sep-21,0.924,0.925,0.853776,0.855625
10:21:47,30-Sep-21,0.924,0.924,0.853776,0.853776
10:21:47,30-Sep-21,0.919,0.922,0.844561,0.850084
10:21:47,30-Sep-21,0.919,0.921,0.844561,0.848241
10:21:47,30-Sep-21,0.919,0.919,0.844561,0.844561
10:21:47,30-Sep-21,0.914,0.918,0.835396,0.842724
10:21:47,30-Sep-21,0.914,0.916,0.835396,0.839056
10:21:47,30-Sep-21,0.914,0.914,0.835396,0.835396
10:21:47,30-Sep-21,0.914,0.912,0.835396,0.831744
10:21:47,30-Sep-21,0.914,0.91,0.835396,0.8281
10:21:47,30-Sep-21,0.914,0.908,0.835396,0.824464
10:21:47,30-Sep-21,0.904,0.906,0.817216,0.820836
10:21:47,30-Sep-21,0.904,0.904,0.817216,0.817216
10:21:47,30-Sep-21,0.904,0.902,0.817216,0.813604
10:21:47,30-Sep-21,0.8895,0.9,0.79121025,0.81
10:21:47,30-Sep-21,0.8895,0.898,0.79121025,0.806404
10:21:47,30-Sep-21,0.8895,0.896,0.79121025,0.802816
10:21:47,30-Sep-21,0.8845,0.894,0.78234025,0.799236
10:21:47,30-Sep-21,0.8845,0.892,0.78234025,0.795664
10:21:47,30-Sep-21,0.8845,0.89,0.78234025,0.7921
10:21:47,30-Sep-21,0.8845,0.888,0.78234025,0.788544
10:21:47,30-Sep-21,0.8845,0.886,0.78234025,0.784996
10:21:47,30-Sep-21,0.8895,0.884,0.79121025,0.781456
10:21:47,30-Sep-21,0.8895,0.883,0.79121025,0.779689
10:21:47,30-Sep-21,0.8895,0.881,0.79121025,0.776161
10:21:47,30-Sep-21,0.8895,0.879,0.79121025,0.772641
10:21:47,30-Sep-21,0.8895,0.878,0.79121025,0.770884
10:21:47,30-Sep-21,0.8895,0.876,0.79121025,0.767376
10:21:47,30-Sep-21,0.88,0.875,0.7744,0.765625
10:21:47,30-Sep-21,0.88,0.874,0.7744,0.763876
10:21:47,30-Sep-21,0.875,0.873,0.765625,0.762129
10:21:47,30-Sep-21,0.875,0.872,0.765625,0.760384
10:21:47,30-Sep-21,0.875,0.871,0.765625,0.758641
10:21:47,30-Sep-21,0.87,0.87,0.7569,0.7569
10:21:47,30-Sep-21,0.87,0.87,0.7569,0.7569
10:21:47,30-Sep-21,0.8555,0.87,0.73188025,0.7569
10:21:47,30-Sep-21,0.8555,0.869,0.73188025,0.755161
10:21:47,30-Sep-21,0.8555,0.869,0.73188025,0.755161
10:21:47,30-Sep-21,0.8505,0.869,0.72335025,0.755161
10:21:47,30-Sep-21,0.8505,0.869,0.72335025,0.755161
10:21:47,30-Sep-21,0.8505,0.87,0.72335025,0.7569
10:21:47,30-Sep-21,0.8555,0.87,0.73188025,0.7569
10:21:47,30-Sep-21,0.8555,0.87,0.73188025,0.7569
10:21:47,30-Sep-21,0.8555,0.871,0.73188025,0.758641
10:21:47,30-Sep-21,0.875,0.872,0.765625,0.760384
10:21:47,30-Sep-21,0.875,0.873,0.765625,0.762129
10:21:47,30-Sep-21,0.875,0.874,0.765625,0.763876
10:21:47,30-Sep-21,0.875,0.874,0.765625,0.763876
10:21:47,30-Sep-21,0.875,0.875,0.765625,0.765625
10:21:47,30-Sep-21,0.8845,0.877,0.78234025,0.769129
10:21:47,30-Sep-21,0.8845,0.878,0.78234025,0.770884
10:21:47,30-Sep-21,0.8845,0.879,0.78234025,0.772641
10:21:47,30-Sep-21,0.8945,0.88,0.80013025,0.7744
10:21:47,30-Sep-21,0.8945,0.881,0.80013025,0.776161
10:21:47,30-Sep-21,0.8945,0.882,0.80013025,0.777924
10:21:47,30-Sep-21,0.8995,0.883,0.80910025,0.779689
10:21:47,30-Sep-21,0.8995,0.884,0.80910025,0.781456
10:21:47,30-Sep-21,0.8995,0.885,0.80910025,0.783225
10:21:47,30-Sep-21,0.8995,0.886,0.80910025,0.784996
10:21:47,30-Sep-21,0.8995,0.887,0.80910025,0.786769
10:21:47,30-Sep-21,0.8895,0.887,0.79121025,0.786769
10:21:47,30-Sep-21,0.8895,0.888,0.79121025,0.788544
10:21:47,30-Sep-21,0.8895,0.889,0.79121025,0.790321
10:21:47,30-Sep-21,0.8895,0.89,0.79121025,0.7921
10:21:47,30-Sep-21,0.8895,0.89,0.79121025,0.7921
10:21:47,30-Sep-21,0.8845,0.891,0.78234025,0.793881
10:21:47,30-Sep-21,0.8845,0.891,0.78234025,0.793881
10:21:47,30-Sep-21,0.8845,0.892,0.78234025,0.795664
10:21:47,30-Sep-21,0.88,0.892,0.7744,0.795664
10:21:47,30-Sep-21,0.88,0.893,0.7744,0.797449
10:21:47,30-Sep-21,0.88,0.893,0.7744,0.797449
10:21:47,30-Sep-21,0.88,0.894,0.7744,0.799236
10:21:47,30-Sep-21,0.88,0.894,0.7744,0.799236
10:21:47,30-Sep-21,0.88,0.894,0.7744,0.799236
10:21:47,30-Sep-21,0.8895,0.895,0.79121025,0.801025
10:21:47,30-Sep-21,0.8895,0.895,0.79121025,0.801025
10:21:47,30-Sep-21,0.8895,0.895,0.79121025,0.801025
10:21:47,30-Sep-21,0.8995,0.896,0.80910025,0.802816
10:21:47,30-Sep-21,0.8995,0.896,0.80910025,0.802816
10:21:47,30-Sep-21,0.8995,0.896,0.80910025,0.802816
10:21:47,30-Sep-21,0.8995,0.896,0.80910025,0.802816
10:21:47,30-Sep-21,0.8995,0.897,0.80910025,0.804609
10:21:47,30-Sep-21,0.914,0.897,0.835396,0.804609
10:21:47,30-Sep-21,0.914,0.897,0.835396,0.804609
10:21:47,30-Sep-21,0.914,0.897,0.835396,0.804609
10:21:47,30-Sep-21,0.914,0.898,0.835396,0.806404
10:21:47,30-Sep-21,0.914,0.898,0.835396,0.806404
10:21:47,30-Sep-21,0.914,0.898,0.835396,0.806404
10:21:47,30-Sep-21,0.914,0.898,0.835396,0.806404
10:21:47,30-Sep-21,0.914,0.899,0.835396,0.808201
10:21:47,30-Sep-21,0.914,0.899,0.835396,0.808201
10:21:47,30-Sep-21,0.914,0.899,0.835396,0.808201
10:21:47,30-Sep-21,0.914,0.9,0.835396,0.81
10:21:47,30-Sep-21,0.904,0.9,0.817216,0.81
10:21:47,30-Sep-21,0.904,0.901,0.817216,0.811801
10:21:47,30-Sep-21,0.904,0.902,0.817216,0.813604
10:21:47,30-Sep-21,0.8895,0.902,0.79121025,0.813604
10:21:47,30-Sep-21,0.8895,0.903,0.79121025,0.815409
10:21:47,30-Sep-21,0.8895,0.905,0.79121025,0.819025
10:21:47,30-Sep-21,0.87,0.906,0.7569,0.820836
10:21:47,30-Sep-21,0.87,0.907,0.7569,0.822649
10:21:47,30-Sep-21,0.87,0.909,0.7569,0.826281
10:21:47,30-Sep-21,0.88,0.91,0.7744,0.8281
10:21:47,30-Sep-21,0.88,0.912,0.7744,0.831744
10:21:47,30-Sep-21,0.8945,0.914,0.80013025,0.835396
10:21:47,30-Sep-21,0.8945,0.915,0.80013025,0.837225
10:21:47,30-Sep-21,0.8945,0.917,0.80013025,0.840889
10:21:47,30-Sep-21,0.8945,0.919,0.80013025,0.844561
10:21:47,30-Sep-21,0.8945,0.921,0.80013025,0.848241
10:21:47,30-Sep-21,0.909,0.923,0.826281,0.851929
10:21:47,30-Sep-21,0.909,0.925,0.826281,0.855625
10:21:47,30-Sep-21,0.9385,0.927,0.88078225,0.859329
10:21:47,30-Sep-21,0.9385,0.928,0.88078225,0.861184
10:21:47,30-Sep-21,0.9385,0.93,0.88078225,0.8649
10:21:47,30-Sep-21,0.953,0.931,0.908209,0.866761
10:21:47,30-Sep-21,0.953,0.933,0.908209,0.870489
10:21:47,30-Sep-21,0.953,0.934,0.908209,0.872356
10:21:47,30-Sep-21,0.963,0.934,0.927369,0.872356
10:21:47,30-Sep-21,0.963,0.935,0.927369,0.874225
10:21:47,30-Sep-21,0.963,0.935,0.927369,0.874225
10:21:47,30-Sep-21,0.963,0.935,0.927369,0.874225
10:21:47,30-Sep-21,0.963,0.935,0.927369,0.874225
10:21:47,30-Sep-21,0.963,0.934,0.927369,0.872356
10:21:47,30-Sep-21,0.963,0.934,0.927369,0.872356
10:21:47,30-Sep-21,0.963,0.933,0.927369,0.870489
10:21:47,30-Sep-21,0.958,0.931,0.917764,0.866761
10:21:47,30-Sep-21,0.958,0.93,0.917764,0.8649
10:21:47,30-Sep-21,0.958,0.928,0.917764,0.861184
10:21:47,30-Sep-21,0.924,0.926,0.853776,0.857476
10:21:47,30-Sep-21,0.924,0.924,0.853776,0.853776
10:21:47,30-Sep-21,0.924,0.921,0.853776,0.848241
10:21:47,30-Sep-21,0.904,0.919,0.817216,0.844561
10:21:47,30-Sep-21,0.904,0.916,0.817216,0.839056
10:21:47,30-Sep-21,0.904,0.914,0.817216,0.835396
10:21:47,30-Sep-21,0.904,0.911,0.817216,0.829921
10:21:47,30-Sep-21,0.88,0.908,0.7744,0.824464
10:21:47,30-Sep-21,0.88,0.905,0.7744,0.819025
10:21:47,30-Sep-21,0.88,0.902,0.7744,0.813604
10:21:47,30-Sep-21,0.88,0.9,0.7744,0.81
10:21:47,30-Sep-21,0.88,0.897,0.7744,0.804609
10:21:47,30-Sep-21,0.87,0.894,0.7569,0.799236
10:21:47,30-Sep-21,0.87,0.892,0.7569,0.795664
10:21:47,30-Sep-21,0.87,0.889,0.7569,0.790321
10:21:47,30-Sep-21,0.87,0.887,0.7569,0.786769
10:21:47,30-Sep-21,0.87,0.885,0.7569,0.783225
10:21:47,30-Sep-21,0.87,0.883,0.7569,0.779689
10:21:47,30-Sep-21,0.87,0.881,0.7569,0.776161
10:21:47,30-Sep-21,0.87,0.879,0.7569,0.772641
10:21:47,30-Sep-21,0.87,0.877,0.7569,0.769129
10:21:47,30-Sep-21,0.87,0.876,0.7569,0.767376
10:21:47,30-Sep-21,0.87,0.874,0.7569,0.763876
10:21:47,30-Sep-21,0.87,0.873,0.7569,0.762129
10:21:47,30-Sep-21,0.87,0.871,0.7569,0.758641
10:21:47,30-Sep-21,0.8845,0.87,0.78234025,0.7569
10:21:47,30-Sep-21,0.8845,0.869,0.78234025,0.755161
10:21:47,30-Sep-21,0.8845,0.868,0.78234025,0.753424
10:21:47,30-Sep-21,0.88,0.867,0.7744,0.751689
10:21:47,30-Sep-21,0.88,0.866,0.7744,0.749956
10:21:47,30-Sep-21,0.88,0.865,0.7744,0.748225
10:21:47,30-Sep-21,0.875,0.864,0.765625,0.746496
10:21:47,30-Sep-21,0.875,0.863,0.765625,0.744769
10:21:47,30-Sep-21,0.875,0.862,0.765625,0.743044
10:21:47,30-Sep-21,0.875,0.861,0.765625,0.741321
10:21:47,30-Sep-21,0.875,0.86,0.765625,0.7396
10:21:47,30-Sep-21,0.875,0.859,0.765625,0.737881
10:21:47,30-Sep-21,0.87,0.858,0.7569,0.736164
10:21:48,30-Sep-21,0.87,0.857,0.7569,0.734449
10:21:48,30-Sep-21,0.8555,0.857,0.73188025,0.734449
10:21:48,30-Sep-21,0.8555,0.856,0.73188025,0.732736
10:21:48,30-Sep-21,0.8555,0.855,0.73188025,0.731025
10:21:48,30-Sep-21,0.8505,0.855,0.72335025,0.731025
10:21:48,30-Sep-21,0.8505,0.854,0.72335025,0.729316
10:21:48,30-Sep-21,0.8405,0.854,0.70644025,0.729316
10:21:48,30-Sep-21,0.8405,0.853,0.70644025,0.727609
10:21:48,30-Sep-21,0.8405,0.853,0.70644025,0.727609
10:21:48,30-Sep-21,0.8405,0.853,0.70644025,0.727609
10:21:48,30-Sep-21,0.8405,0.852,0.70644025,0.725904
10:21:48,30-Sep-21,0.8405,0.852,0.70644025,0.725904
10:21:48,30-Sep-21,0.8405,0.852,0.70644025,0.725904
10:21:48,30-Sep-21,0.8405,0.852,0.70644025,0.725904
10:21:48,30-Sep-21,0.8405,0.853,0.70644025,0.727609
10:21:48,30-Sep-21,0.8405,0.853,0.70644025,0.727609
10:21:48,30-Sep-21,0.8405,0.853,0.70644025,0.727609
10:21:48,30-Sep-21,0.86,0.854,0.7396,0.729316
10:21:48,30-Sep-21,0.86,0.854,0.7396,0.729316
10:21:48,30-Sep-21,0.86,0.855,0.7396,0.731025
10:21:48,30-Sep-21,0.865,0.856,0.748225,0.732736
10:21:48,30-Sep-21,0.865,0.857,0.748225,0.734449
10:21:48,30-Sep-21,0.87,0.858,0.7569,0.736164
10:21:48,30-Sep-21,0.87,0.859,0.7569,0.737881
10:21:48,30-Sep-21,0.87,0.86,0.7569,0.7396
10:21:48,30-Sep-21,0.87,0.861,0.7569,0.741321
10:21:48,30-Sep-21,0.87,0.862,0.7569,0.743044
10:21:48,30-Sep-21,0.87,0.863,0.7569,0.744769
10:21:48,30-Sep-21,0.87,0.864,0.7569,0.746496
10:21:48,30-Sep-21,0.87,0.866,0.7569,0.749956
10:21:48,30-Sep-21,0.87,0.867,0.7569,0.751689
10:21:48,30-Sep-21,0.87,0.869,0.7569,0.755161
10:21:48,30-Sep-21,0.865,0.87,0.748225,0.7569
10:21:48,30-Sep-21,0.865,0.872,0.748225,0.760384
10:21:48,30-Sep-21,0.865,0.873,0.748225,0.762129
10:21:48,30-Sep-21,0.875,0.875,0.765625,0.765625
10:21:48,30-Sep-21,0.875,0.876,0.765625,0.767376
10:21:48,30-Sep-21,0.875,0.878,0.765625,0.770884
10:21:48,30-Sep-21,0.875,0.88,0.765625,0.7744
10:21:48,30-Sep-21,0.875,0.882,0.765625,0.777924
10:21:48,30-Sep-21,0.875,0.883,0.765625,0.779689
10:21:48,30-Sep-21,0.875,0.885,0.765625,0.783225
10:21:48,30-Sep-21,0.875,0.887,0.765625,0.786769
10:21:48,30-Sep-21,0.88,0.889,0.7744,0.790321
10:21:48,30-Sep-21,0.88,0.89,0.7744,0.7921
10:21:48,30-Sep-21,0.88,0.892,0.7744,0.795664
10:21:48,30-Sep-21,0.8845,0.894,0.78234025,0.799236
10:21:48,30-Sep-21,0.8845,0.895,0.78234025,0.801025
10:21:48,30-Sep-21,0.8845,0.897,0.78234025,0.804609
10:21:48,30-Sep-21,0.8945,0.898,0.80013025,0.806404
10:21:48,30-Sep-21,0.8945,0.899,0.80013025,0.808201
10:21:48,30-Sep-21,0.8945,0.9,0.80013025,0.81
10:21:48,30-Sep-21,0.904,0.901,0.817216,0.811801
10:21:48,30-Sep-21,0.904,0.902,0.817216,0.813604
10:21:48,30-Sep-21,0.904,0.903,0.817216,0.815409
10:21:48,30-Sep-21,0.924,0.904,0.853776,0.817216
10:21:48,30-Sep-21,0.924,0.904,0.853776,0.817216
10:21:48,30-Sep-21,0.924,0.904,0.853776,0.817216
10:21:48,30-Sep-21,0.924,0.905,0.853776,0.819025
10:21:48,30-Sep-21,0.924,0.904,0.853776,0.817216
10:21:48,30-Sep-21,0.924,0.904,0.853776,0.817216
10:21:48,30-Sep-21,0.924,0.904,0.853776,0.817216
10:21:48,30-Sep-21,0.924,0.903,0.853776,0.815409
10:21:48,30-Sep-21,0.914,0.902,0.835396,0.813604
10:21:48,30-Sep-21,0.914,0.901,0.835396,0.811801
10:21:48,30-Sep-21,0.914,0.9,0.835396,0.81
10:21:48,30-Sep-21,0.904,0.899,0.817216,0.808201
10:21:48,30-Sep-21,0.904,0.898,0.817216,0.806404
10:21:48,30-Sep-21,0.904,0.897,0.817216,0.804609
10:21:48,30-Sep-21,0.8845,0.895,0.78234025,0.801025
10:21:48,30-Sep-21,0.8845,0.894,0.78234025,0.799236
10:21:48,30-Sep-21,0.8845,0.892,0.78234025,0.795664
10:21:48,30-Sep-21,0.8845,0.89,0.78234025,0.7921
10:21:48,30-Sep-21,0.8845,0.889,0.78234025,0.790321
10:21:48,30-Sep-21,0.875,0.887,0.765625,0.786769
10:21:48,30-Sep-21,0.875,0.886,0.765625,0.784996
10:21:48,30-Sep-21,0.875,0.884,0.765625,0.781456
10:21:48,30-Sep-21,0.87,0.883,0.7569,0.779689
10:21:48,30-Sep-21,0.87,0.881,0.7569,0.776161
10:21:48,30-Sep-21,0.87,0.88,0.7569,0.7744
10:21:48,30-Sep-21,0.86,0.879,0.7396,0.772641
10:21:48,30-Sep-21,0.86,0.878,0.7396,0.770884
10:21:48,30-Sep-21,0.8555,0.877,0.73188025,0.769129
10:21:48,30-Sep-21,0.8555,0.876,0.73188025,0.767376
10:21:48,30-Sep-21,0.8555,0.875,0.73188025,0.765625
10:21:48,30-Sep-21,0.8555,0.874,0.73188025,0.763876
10:21:48,30-Sep-21,0.875,0.874,0.765625,0.763876
10:21:48,30-Sep-21,0.875,0.873,0.765625,0.762129
10:21:48,30-Sep-21,0.875,0.873,0.765625,0.762129
10:21:48,30-Sep-21,0.875,0.872,0.765625,0.760384
10:21:48,30-Sep-21,0.875,0.872,0.765625,0.760384
10:21:48,30-Sep-21,0.875,0.872,0.765625,0.760384
10:21:48,30-Sep-21,0.8845,0.872,0.78234025,0.760384
10:21:48,30-Sep-21,0.8845,0.871,0.78234025,0.758641
10:21:48,30-Sep-21,0.8845,0.871,0.78234025,0.758641
10:21:48,30-Sep-21,0.8845,0.871,0.78234025,0.758641
10:21:48,30-Sep-21,0.8845,0.871,0.78234025,0.758641
10:21:48,30-Sep-21,0.8845,0.871,0.78234025,0.758641
10:21:48,30-Sep-21,0.88,0.871,0.7744,0.758641
10:21:48,30-Sep-21,0.88,0.871,0.7744,0.758641
10:21:48,30-Sep-21,0.88,0.871,0.7744,0.758641
10:21:48,30-Sep-21,0.88,0.871,0.7744,0.758641
10:21:48,30-Sep-21,0.88,0.871,0.7744,0.758641
10:21:48,30-Sep-21,0.88,0.87,0.7744,0.7569
10:21:48,30-Sep-21,0.88,0.87,0.7744,0.7569
10:21:48,30-Sep-21,0.88,0.87,0.7744,0.7569
10:21:48,30-Sep-21,0.88,0.87,0.7744,0.7569
10:21:48,30-Sep-21,0.875,0.87,0.765625,0.7569
10:21:48,30-Sep-21,0.875,0.87,0.765625,0.7569
10:21:48,30-Sep-21,0.875,0.871,0.765625,0.758641
10:21:48,30-Sep-21,0.86,0.871,0.7396,0.758641
10:21:48,30-Sep-21,0.86,0.871,0.7396,0.758641
10:21:48,30-Sep-21,0.86,0.871,0.7396,0.758641
10:21:48,30-Sep-21,0.86,0.871,0.7396,0.758641
10:21:48,30-Sep-21,0.86,0.872,0.7396,0.760384
10:21:48,30-Sep-21,0.8555,0.872,0.73188025,0.760384
10:21:48,30-Sep-21,0.8555,0.873,0.73188025,0.762129
10:21:48,30-Sep-21,0.8555,0.873,0.73188025,0.762129
10:21:48,30-Sep-21,0.8555,0.874,0.73188025,0.763876
10:21:48,30-Sep-21,0.8555,0.875,0.73188025,0.765625
10:21:48,30-Sep-21,0.86,0.876,0.7396,0.767376
10:21:48,30-Sep-21,0.86,0.876,0.7396,0.767376
10:21:48,30-Sep-21,0.86,0.877,0.7396,0.769129
10:21:48,30-Sep-21,0.88,0.878,0.7744,0.770884
10:21:48,30-Sep-21,0.88,0.879,0.7744,0.772641
10:21:48,30-Sep-21,0.88,0.88,0.7744,0.7744
10:21:48,30-Sep-21,0.8945,0.881,0.80013025,0.776161
10:21:48,30-Sep-21,0.8945,0.882,0.80013025,0.777924
10:21:48,30-Sep-21,0.8945,0.883,0.80013025,0.779689
10:21:48,30-Sep-21,0.8945,0.884,0.80013025,0.781456
10:21:48,30-Sep-21,0.8945,0.884,0.80013025,0.781456
10:21:48,30-Sep-21,0.8995,0.885,0.80910025,0.783225
10:21:48,30-Sep-21,0.8995,0.886,0.80910025,0.784996
10:21:48,30-Sep-21,0.8995,0.887,0.80910025,0.786769
10:21:48,30-Sep-21,0.904,0.887,0.817216,0.786769
10:21:48,30-Sep-21,0.904,0.888,0.817216,0.788544
10:21:48,30-Sep-21,0.904,0.888,0.817216,0.788544
10:21:48,30-Sep-21,0.904,0.889,0.817216,0.790321
10:21:48,30-Sep-21,0.904,0.889,0.817216,0.790321
10:21:48,30-Sep-21,0.904,0.89,0.817216,0.7921
10:21:48,30-Sep-21,0.8895,0.89,0.79121025,0.7921
10:21:48,30-Sep-21,0.8895,0.891,0.79121025,0.793881
10:21:48,30-Sep-21,0.8895,0.891,0.79121025,0.793881
10:21:48,30-Sep-21,0.8845,0.891,0.78234025,0.793881
10:21:48,30-Sep-21,0.8845,0.891,0.78234025,0.793881
10:21:48,30-Sep-21,0.8845,0.892,0.78234025,0.795664
10:21:48,30-Sep-21,0.8845,0.892,0.78234025,0.795664
10:21:48,30-Sep-21,0.8845,0.892,0.78234025,0.795664
10:21:48,30-Sep-21,0.875,0.893,0.765625,0.797449
10:21:48,30-Sep-21,0.875,0.893,0.765625,0.797449
10:21:48,30-Sep-21,0.875,0.893,0.765625,0.797449
10:21:48,30-Sep-21,0.875,0.894,0.765625,0.799236
10:21:48,30-Sep-21,0.875,0.894,0.765625,0.799236
10:21:48,30-Sep-21,0.875,0.894,0.765625,0.799236
10:21:48,30-Sep-21,0.8895,0.895,0.79121025,0.801025
10:21:48,30-Sep-21,0.8895,0.895,0.79121025,0.801025
10:21:48,30-Sep-21,0.8895,0.896,0.79121025,0.802816
10:21:48,30-Sep-21,0.8895,0.896,0.79121025,0.802816
10:21:48,30-Sep-21,0.8895,0.897,0.79121025,0.804609
10:21:48,30-Sep-21,0.8995,0.897,0.80910025,0.804609
10:21:48,30-Sep-21,0.8995,0.897,0.80910025,0.804609
10:21:48,30-Sep-21,0.8995,0.898,0.80910025,0.806404
10:21:48,30-Sep-21,0.914,0.898,0.835396,0.806404
10:21:48,30-Sep-21,0.914,0.898,0.835396,0.806404
10:21:48,30-Sep-21,0.914,0.899,0.835396,0.808201
10:21:48,30-Sep-21,0.914,0.899,0.835396,0.808201
10:21:48,30-Sep-21,0.914,0.899,0.835396,0.808201
10:21:48,30-Sep-21,0.914,0.899,0.835396,0.808201
10:21:48,30-Sep-21,0.914,0.899,0.835396,0.808201
10:21:48,30-Sep-21,0.914,0.899,0.835396,0.808201
10:21:48,30-Sep-21,0.904,0.899,0.817216,0.808201
10:21:48,30-Sep-21,0.904,0.899,0.817216,0.808201
10:21:48,30-Sep-21,0.904,0.899,0.817216,0.808201
10:21:48,30-Sep-21,0.904,0.899,0.817216,0.808201
10:21:48,30-Sep-21,0.904,0.898,0.817216,0.806404
10:21:48,30-Sep-21,0.904,0.898,0.817216,0.806404
10:21:48,30-Sep-21,0.8995,0.898,0.80910025,0.806404
10:21:48,30-Sep-21,0.8995,0.897,0.80910025,0.804609
10:21:48,30-Sep-21,0.8995,0.897,0.80910025,0.804609
10:21:48,30-Sep-21,0.8895,0.897,0.79121025,0.804609
10:21:49,30-Sep-21,0.8895,0.896,0.79121025,0.802816
10:21:49,30-Sep-21,0.8895,0.896,0.79121025,0.802816
10:21:49,30-Sep-21,0.8845,0.896,0.78234025,0.802816
10:21:49,30-Sep-21,0.8845,0.896,0.78234025,0.802816
10:21:49,30-Sep-21,0.8845,0.895,0.78234025,0.801025
10:21:49,30-Sep-21,0.8845,0.895,0.78234025,0.801025
10:21:49,30-Sep-21,0.8845,0.895,0.78234025,0.801025
10:21:49,30-Sep-21,0.8845,0.895,0.78234025,0.801025
10:21:49,30-Sep-21,0.8845,0.895,0.78234025,0.801025
10:21:49,30-Sep-21,0.8845,0.895,0.78234025,0.801025
10:21:49,30-Sep-21,0.8845,0.895,0.78234025,0.801025
10:21:49,30-Sep-21,0.8845,0.895,0.78234025,0.801025
10:21:49,30-Sep-21,0.8845,0.896,0.78234025,0.802816
10:21:49,30-Sep-21,0.8845,0.896,0.78234025,0.802816
10:21:49,30-Sep-21,0.8995,0.896,0.80910025,0.802816
10:21:49,30-Sep-21,0.8995,0.896,0.80910025,0.802816
10:21:49,30-Sep-21,0.8995,0.897,0.80910025,0.804609
10:21:49,30-Sep-21,0.8995,0.897,0.80910025,0.804609
10:21:49,30-Sep-21,0.8995,0.897,0.80910025,0.804609
10:21:49,30-Sep-21,0.904,0.897,0.817216,0.804609
10:21:49,30-Sep-21,0.904,0.897,0.817216,0.804609
10:21:49,30-Sep-21,0.904,0.898,0.817216,0.806404
10:21:49,30-Sep-21,0.904,0.898,0.817216,0.806404
10:21:49,30-Sep-21,0.909,0.898,0.826281,0.806404
10:21:49,30-Sep-21,0.909,0.898,0.826281,0.806404
10:21:49,30-Sep-21,0.909,0.898,0.826281,0.806404
10:21:49,30-Sep-21,0.909,0.898,0.826281,0.806404
10:21:49,30-Sep-21,0.909,0.898,0.826281,0.806404
10:21:49,30-Sep-21,0.904,0.898,0.817216,0.806404
10:21:49,30-Sep-21,0.904,0.897,0.817216,0.804609
10:21:49,30-Sep-21,0.904,0.897,0.817216,0.804609
10:21:49,30-Sep-21,0.904,0.897,0.817216,0.804609
10:21:49,30-Sep-21,0.904,0.897,0.817216,0.804609
10:21:49,30-Sep-21,0.904,0.896,0.817216,0.802816
10:21:49,30-Sep-21,0.904,0.896,0.817216,0.802816
10:21:49,30-Sep-21,0.904,0.895,0.817216,0.801025
10:21:49,30-Sep-21,0.904,0.895,0.817216,0.801025
10:21:49,30-Sep-21,0.8895,0.895,0.79121025,0.801025
10:21:49,30-Sep-21,0.8845,0.894,0.78234025,0.799236
10:21:49,30-Sep-21,0.8845,0.894,0.78234025,0.799236
10:21:49,30-Sep-21,0.8845,0.894,0.78234025,0.799236
10:21:49,30-Sep-21,0.875,0.893,0.765625,0.797449
10:21:49,30-Sep-21,0.875,0.893,0.765625,0.797449
10:21:49,30-Sep-21,0.875,0.893,0.765625,0.797449
10:21:49,30-Sep-21,0.875,0.892,0.765625,0.795664
10:21:49,30-Sep-21,0.875,0.892,0.765625,0.795664
10:21:49,30-Sep-21,0.875,0.892,0.765625,0.795664
10:21:49,30-Sep-21,0.88,0.892,0.7744,0.795664
10:21:49,30-Sep-21,0.88,0.892,0.7744,0.795664
10:21:49,30-Sep-21,0.8895,0.892,0.79121025,0.795664
10:21:49,30-Sep-21,0.8895,0.892,0.79121025,0.795664
10:21:49,30-Sep-21,0.8995,0.892,0.80910025,0.795664
10:21:49,30-Sep-21,0.8995,0.892,0.80910025,0.795664
10:21:49,30-Sep-21,0.909,0.892,0.826281,0.795664
10:21:49,30-Sep-21,0.909,0.892,0.826281,0.795664
10:21:49,30-Sep-21,0.909,0.893,0.826281,0.797449
10:21:49,30-Sep-21,0.914,0.893,0.835396,0.797449
10:21:49,30-Sep-21,0.914,0.893,0.835396,0.797449
10:21:49,30-Sep-21,0.904,0.893,0.817216,0.797449
10:21:49,30-Sep-21,0.904,0.893,0.817216,0.797449
10:21:49,30-Sep-21,0.904,0.893,0.817216,0.797449
10:21:49,30-Sep-21,0.904,0.894,0.817216,0.799236
10:21:49,30-Sep-21,0.8845,0.894,0.78234025,0.799236
10:21:49,30-Sep-21,0.8845,0.894,0.78234025,0.799236
10:21:49,30-Sep-21,0.8845,0.894,0.78234025,0.799236
10:21:49,30-Sep-21,0.8845,0.894,0.78234025,0.799236
10:21:49,30-Sep-21,0.88,0.895,0.7744,0.801025
10:21:49,30-Sep-21,0.88,0.895,0.7744,0.801025
10:21:49,30-Sep-21,0.875,0.895,0.765625,0.801025
10:21:49,30-Sep-21,0.875,0.895,0.765625,0.801025
10:21:49,30-Sep-21,0.875,0.896,0.765625,0.802816
10:21:49,30-Sep-21,0.8945,0.896,0.80013025,0.802816
10:21:49,30-Sep-21,0.8945,0.896,0.80013025,0.802816
10:21:49,30-Sep-21,0.8945,0.896,0.80013025,0.802816
10:21:49,30-Sep-21,0.8945,0.896,0.80013025,0.802816
10:21:49,30-Sep-21,0.904,0.896,0.817216,0.802816
10:21:49,30-Sep-21,0.904,0.897,0.817216,0.804609
10:21:49,30-Sep-21,0.909,0.897,0.826281,0.804609
10:21:49,30-Sep-21,0.909,0.897,0.826281,0.804609
10:21:49,30-Sep-21,0.909,0.897,0.826281,0.804609
10:21:49,30-Sep-21,0.909,0.897,0.826281,0.804609
10:21:49,30-Sep-21,0.909,0.897,0.826281,0.804609
10:21:49,30-Sep-21,0.909,0.897,0.826281,0.804609
10:21:49,30-Sep-21,0.909,0.897,0.826281,0.804609
10:21:49,30-Sep-21,0.909,0.897,0.826281,0.804609
10:21:49,30-Sep-21,0.909,0.897,0.826281,0.804609
10:21:49,30-Sep-21,0.8995,0.897,0.80910025,0.804609
10:21:49,30-Sep-21,0.8995,0.896,0.80910025,0.802816
10:21:49,30-Sep-21,0.8995,0.896,0.80910025,0.802816
10:21:49,30-Sep-21,0.8995,0.896,0.80910025,0.802816
10:21:49,30-Sep-21,0.8995,0.896,0.80910025,0.802816
10:21:49,30-Sep-21,0.8945,0.896,0.80013025,0.802816
10:21:49,30-Sep-21,0.8945,0.896,0.80013025,0.802816
10:21:49,30-Sep-21,0.8845,0.896,0.78234025,0.802816
10:21:49,30-Sep-21,0.8845,0.896,0.78234025,0.802816
10:21:49,30-Sep-21,0.8845,0.896,0.78234025,0.802816
10:21:49,30-Sep-21,0.8845,0.896,0.78234025,0.802816
10:21:49,30-Sep-21,0.8845,0.896,0.78234025,0.802816
10:21:49,30-Sep-21,0.8845,0.896,0.78234025,0.802816
10:21:49,30-Sep-21,0.8845,0.897,0.78234025,0.804609
10:21:49,30-Sep-21,0.8845,0.897,0.78234025,0.804609
10:21:49,30-Sep-21,0.8845,0.897,0.78234025,0.804609
10:21:49,30-Sep-21,0.8845,0.898,0.78234025,0.806404
10:21:49,30-Sep-21,0.8845,0.898,0.78234025,0.806404
10:21:49,30-Sep-21,0.8845,0.899,0.78234025,0.808201
10:21:49,30-Sep-21,0.8895,0.899,0.79121025,0.808201
10:21:49,30-Sep-21,0.8895,0.9,0.79121025,0.81
10:21:49,30-Sep-21,0.8995,0.9,0.80910025,0.81
10:21:49,30-Sep-21,0.8995,0.901,0.80910025,0.811801
10:21:49,30-Sep-21,0.8995,0.901,0.80910025,0.811801
10:21:49,30-Sep-21,0.919,0.902,0.844561,0.813604
10:21:49,30-Sep-21,0.919,0.902,0.844561,0.813604
10:21:49,30-Sep-21,0.919,0.903,0.844561,0.815409
10:21:49,30-Sep-21,0.919,0.903,0.844561,0.815409
10:21:49,30-Sep-21,0.919,0.903,0.844561,0.815409
10:21:49,30-Sep-21,0.919,0.904,0.844561,0.817216
10:21:49,30-Sep-21,0.919,0.904,0.844561,0.817216
10:21:49,30-Sep-21,0.914,0.904,0.835396,0.817216
10:21:49,30-Sep-21,0.914,0.904,0.835396,0.817216
10:21:49,30-Sep-21,0.914,0.904,0.835396,0.817216
10:21:49,30-Sep-21,0.914,0.904,0.835396,0.817216
10:21:49,30-Sep-21,0.914,0.904,0.835396,0.817216
10:21:49,30-Sep-21,0.914,0.903,0.835396,0.815409
10:21:49,30-Sep-21,0.914,0.903,0.835396,0.815409
10:21:49,30-Sep-21,0.8995,0.903,0.80910025,0.815409
10:21:49,30-Sep-21,0.8995,0.902,0.80910025,0.813604
10:21:49,30-Sep-21,0.8995,0.902,0.80910025,0.813604
10:21:49,30-Sep-21,0.8945,0.902,0.80013025,0.813604
10:21:49,30-Sep-21,0.8945,0.901,0.80013025,0.811801
10:21:49,30-Sep-21,0.8945,0.901,0.80013025,0.811801
10:21:49,30-Sep-21,0.8945,0.9,0.80013025,0.81
10:21:49,30-Sep-21,0.8945,0.9,0.80013025,0.81
10:21:49,30-Sep-21,0.8845,0.9,0.78234025,0.81
10:21:49,30-Sep-21,0.8845,0.899,0.78234025,0.808201
10:21:49,30-Sep-21,0.8845,0.899,0.78234025,0.808201
10:21:49,30-Sep-21,0.8845,0.899,0.78234025,0.808201
10:21:49,30-Sep-21,0.8845,0.898,0.78234025,0.806404
10:21:49,30-Sep-21,0.8845,0.898,0.78234025,0.806404
10:21:49,30-Sep-21,0.8845,0.898,0.78234025,0.806404
10:21:49,30-Sep-21,0.8845,0.897,0.78234025,0.804609
10:21:49,30-Sep-21,0.8845,0.897,0.78234025,0.804609
10:21:49,30-Sep-21,0.8995,0.897,0.80910025,0.804609
10:21:49,30-Sep-21,0.8995,0.897,0.80910025,0.804609
10:21:49,30-Sep-21,0.8995,0.897,0.80910025,0.804609
10:21:49,30-Sep-21,0.904,0.896,0.817216,0.802816
10:21:49,30-Sep-21,0.904,0.896,0.817216,0.802816
10:21:49,30-Sep-21,0.904,0.896,0.817216,0.802816
10:21:49,30-Sep-21,0.904,0.896,0.817216,0.802816
10:21:49,30-Sep-21,0.904,0.896,0.817216,0.802816
10:21:49,30-Sep-21,0.904,0.895,0.817216,0.801025
10:21:49,30-Sep-21,0.909,0.895,0.826281,0.801025
10:21:49,30-Sep-21,0.909,0.895,0.826281,0.801025
10:21:49,30-Sep-21,0.909,0.895,0.826281,0.801025
10:21:49,30-Sep-21,0.909,0.894,0.826281,0.799236
10:21:49,30-Sep-21,0.909,0.894,0.826281,0.799236
10:21:49,30-Sep-21,0.909,0.894,0.826281,0.799236
10:21:49,30-Sep-21,0.8995,0.893,0.80910025,0.797449
10:21:49,30-Sep-21,0.8995,0.893,0.80910025,0.797449
10:21:49,30-Sep-21,0.8945,0.892,0.80013025,0.795664
10:21:49,30-Sep-21,0.8945,0.892,0.80013025,0.795664
10:21:49,30-Sep-21,0.8945,0.892,0.80013025,0.795664
10:21:49,30-Sep-21,0.88,0.892,0.7744,0.795664
10:21:49,30-Sep-21,0.88,0.891,0.7744,0.793881
10:21:49,30-Sep-21,0.88,0.891,0.7744,0.793881
10:21:49,30-Sep-21,0.88,0.891,0.7744,0.793881
10:21:49,30-Sep-21,0.88,0.891,0.7744,0.793881
10:21:49,30-Sep-21,0.88,0.891,0.7744,0.793881
10:21:49,30-Sep-21,0.88,0.891,0.7744,0.793881
10:21:49,30-Sep-21,0.88,0.891,0.7744,0.793881
10:21:50,30-Sep-21,0.88,0.891,0.7744,0.793881
10:21:50,30-Sep-21,0.88,0.892,0.7744,0.795664
10:21:50,30-Sep-21,0.88,0.892,0.7744,0.795664
10:21:50,30-Sep-21,0.8845,0.892,0.78234025,0.795664
10:21:50,30-Sep-21,0.8845,0.893,0.78234025,0.797449
10:21:50,30-Sep-21,0.8845,0.893,0.78234025,0.797449
10:21:50,30-Sep-21,0.8945,0.894,0.80013025,0.799236
10:21:50,30-Sep-21,0.8945,0.895,0.80013025,0.801025
10:21:50,30-Sep-21,0.8945,0.895,0.80013025,0.801025
10:21:50,30-Sep-21,0.8945,0.896,0.80013025,0.802816
10:21:50,30-Sep-21,0.909,0.897,0.826281,0.804609
10:21:50,30-Sep-21,0.909,0.897,0.826281,0.804609
10:21:50,30-Sep-21,0.909,0.898,0.826281,0.806404
10:21:50,30-Sep-21,0.914,0.899,0.835396,0.808201
10:21:50,30-Sep-21,0.914,0.9,0.835396,0.81
10:21:50,30-Sep-21,0.914,0.9,0.835396,0.81
10:21:50,30-Sep-21,0.914,0.901,0.835396,0.811801
10:21:50,30-Sep-21,0.914,0.902,0.835396,0.813604
10:21:50,30-Sep-21,0.914,0.902,0.835396,0.813604
10:21:50,30-Sep-21,0.904,0.903,0.817216,0.815409
10:21:50,30-Sep-21,0.904,0.904,0.817216,0.817216
10:21:50,30-Sep-21,0.904,0.905,0.817216,0.819025
10:21:50,30-Sep-21,0.904,0.905,0.817216,0.819025
10:21:50,30-Sep-21,0.8995,0.906,0.80910025,0.820836
10:21:50,30-Sep-21,0.8995,0.906,0.80910025,0.820836
10:21:50,30-Sep-21,0.8995,0.907,0.80910025,0.822649
10:21:50,30-Sep-21,0.8995,0.908,0.80910025,0.824464
10:21:50,30-Sep-21,0.8945,0.908,0.80013025,0.824464
10:21:50,30-Sep-21,0.8945,0.909,0.80013025,0.826281
10:21:50,30-Sep-21,0.8945,0.909,0.80013025,0.826281
10:21:50,30-Sep-21,0.8945,0.91,0.80013025,0.8281
10:21:50,30-Sep-21,0.8945,0.91,0.80013025,0.8281
10:21:50,30-Sep-21,0.914,0.911,0.835396,0.829921
10:21:50,30-Sep-21,0.914,0.911,0.835396,0.829921
10:21:50,30-Sep-21,0.919,0.912,0.844561,0.831744
10:21:50,30-Sep-21,0.919,0.912,0.844561,0.831744
10:21:50,30-Sep-21,0.9335,0.913,0.87142225,0.833569
10:21:50,30-Sep-21,0.9335,0.913,0.87142225,0.833569
10:21:50,30-Sep-21,0.9285,0.913,0.86211225,0.833569
10:21:50,30-Sep-21,0.9285,0.914,0.86211225,0.835396
10:21:50,30-Sep-21,0.919,0.914,0.844561,0.835396
10:21:50,30-Sep-21,0.919,0.914,0.844561,0.835396
10:21:50,30-Sep-21,0.919,0.915,0.844561,0.837225
10:21:50,30-Sep-21,0.919,0.915,0.844561,0.837225
10:21:50,30-Sep-21,0.914,0.915,0.835396,0.837225
10:21:50,30-Sep-21,0.914,0.915,0.835396,0.837225
10:21:50,30-Sep-21,0.914,0.915,0.835396,0.837225
10:21:50,30-Sep-21,0.914,0.916,0.835396,0.839056
10:21:50,30-Sep-21,0.904,0.916,0.817216,0.839056
10:21:50,30-Sep-21,0.904,0.916,0.817216,0.839056
10:21:50,30-Sep-21,0.8995,0.916,0.80910025,0.839056
10:21:50,30-Sep-21,0.8995,0.917,0.80910025,0.840889
10:21:50,30-Sep-21,0.8995,0.917,0.80910025,0.840889
10:21:50,30-Sep-21,0.8995,0.917,0.80910025,0.840889
10:21:50,30-Sep-21,0.8995,0.917,0.80910025,0.840889
10:21:50,30-Sep-21,0.8995,0.917,0.80910025,0.840889
10:21:50,30-Sep-21,0.909,0.917,0.826281,0.840889
10:21:50,30-Sep-21,0.9285,0.918,0.86211225,0.842724
10:21:50,30-Sep-21,0.9285,0.918,0.86211225,0.842724
10:21:50,30-Sep-21,0.9335,0.918,0.87142225,0.842724
10:21:50,30-Sep-21,0.9335,0.918,0.87142225,0.842724
10:21:50,30-Sep-21,0.9335,0.918,0.87142225,0.842724
10:21:50,30-Sep-21,0.9335,0.918,0.87142225,0.842724
10:21:50,30-Sep-21,0.9335,0.918,0.87142225,0.842724
10:21:50,30-Sep-21,0.9335,0.918,0.87142225,0.842724
10:21:50,30-Sep-21,0.9285,0.918,0.86211225,0.842724
10:21:50,30-Sep-21,0.9285,0.918,0.86211225,0.842724
10:21:50,30-Sep-21,0.924,0.917,0.853776,0.840889
10:21:50,30-Sep-21,0.924,0.917,0.853776,0.840889
10:21:50,30-Sep-21,0.914,0.917,0.835396,0.840889
10:21:50,30-Sep-21,0.914,0.916,0.835396,0.839056
10:21:50,30-Sep-21,0.914,0.916,0.835396,0.839056
10:21:50,30-Sep-21,0.914,0.916,0.835396,0.839056
10:21:50,30-Sep-21,0.904,0.915,0.817216,0.837225
10:21:50,30-Sep-21,0.8945,0.915,0.80013025,0.837225
10:21:50,30-Sep-21,0.8945,0.914,0.80013025,0.835396
10:21:50,30-Sep-21,0.8945,0.914,0.80013025,0.835396
10:21:50,30-Sep-21,0.8945,0.913,0.80013025,0.833569
10:21:50,30-Sep-21,0.8945,0.913,0.80013025,0.833569
10:21:50,30-Sep-21,0.904,0.912,0.817216,0.831744
10:21:50,30-Sep-21,0.904,0.912,0.817216,0.831744
10:21:50,30-Sep-21,0.914,0.911,0.835396,0.829921
10:21:50,30-Sep-21,0.914,0.91,0.835396,0.8281
10:21:50,30-Sep-21,0.914,0.91,0.835396,0.8281
10:21:50,30-Sep-21,0.914,0.909,0.835396,0.826281
10:21:50,30-Sep-21,0.924,0.908,0.853776,0.824464
10:21:50,30-Sep-21,0.924,0.908,0.853776,0.824464
10:21:50,30-Sep-21,0.919,0.907,0.844561,0.822649
10:21:50,30-Sep-21,0.919,0.906,0.844561,0.820836
10:21:50,30-Sep-21,0.919,0.905,0.844561,0.819025
10:21:50,30-Sep-21,0.914,0.904,0.835396,0.817216
10:21:50,30-Sep-21,0.914,0.903,0.835396,0.815409
10:21:50,30-Sep-21,0.914,0.902,0.835396,0.813604
10:21:50,30-Sep-21,0.914,0.902,0.835396,0.813604
10:21:50,30-Sep-21,0.904,0.901,0.817216,0.811801
10:21:50,30-Sep-21,0.904,0.9,0.817216,0.81
10:21:50,30-Sep-21,0.904,0.899,0.817216,0.808201
10:21:50,30-Sep-21,0.8945,0.898,0.80013025,0.806404
10:21:50,30-Sep-21,0.8945,0.897,0.80013025,0.804609
10:21:50,30-Sep-21,0.8945,0.896,0.80013025,0.802816
10:21:50,30-Sep-21,0.8945,0.895,0.80013025,0.801025
10:21:50,30-Sep-21,0.8945,0.895,0.80013025,0.801025
10:21:50,30-Sep-21,0.8845,0.894,0.78234025,0.799236
10:21:50,30-Sep-21,0.8845,0.893,0.78234025,0.797449
10:21:50,30-Sep-21,0.8845,0.893,0.78234025,0.797449
10:21:50,30-Sep-21,0.8845,0.892,0.78234025,0.795664
10:21:50,30-Sep-21,0.88,0.892,0.7744,0.795664
10:21:50,30-Sep-21,0.88,0.892,0.7744,0.795664
10:21:50,30-Sep-21,0.88,0.891,0.7744,0.793881
10:21:50,30-Sep-21,0.88,0.891,0.7744,0.793881
10:21:50,30-Sep-21,0.875,0.891,0.765625,0.793881
10:21:50,30-Sep-21,0.875,0.891,0.765625,0.793881
10:21:50,30-Sep-21,0.875,0.891,0.765625,0.793881
10:21:50,30-Sep-21,0.875,0.891,0.765625,0.793881
10:21:50,30-Sep-21,0.88,0.891,0.7744,0.793881
10:21:50,30-Sep-21,0.88,0.892,0.7744,0.795664
10:21:50,30-Sep-21,0.88,0.892,0.7744,0.795664
10:21:50,30-Sep-21,0.904,0.892,0.817216,0.795664
10:21:50,30-Sep-21,0.904,0.892,0.817216,0.795664
10:21:50,30-Sep-21,0.904,0.892,0.817216,0.795664
10:21:50,30-Sep-21,0.904,0.892,0.817216,0.795664
10:21:50,30-Sep-21,0.904,0.892,0.817216,0.795664
10:21:50,30-Sep-21,0.904,0.892,0.817216,0.795664
10:21:50,30-Sep-21,0.904,0.892,0.817216,0.795664
10:21:50,30-Sep-21,0.904,0.892,0.817216,0.795664
10:21:50,30-Sep-21,0.904,0.892,0.817216,0.795664
10:21:50,30-Sep-21,0.904,0.891,0.817216,0.793881
10:21:50,30-Sep-21,0.904,0.891,0.817216,0.793881
10:21:50,30-Sep-21,0.8995,0.891,0.80910025,0.793881
10:21:50,30-Sep-21,0.8995,0.89,0.80910025,0.7921
10:21:50,30-Sep-21,0.8995,0.889,0.80910025,0.790321
10:21:50,30-Sep-21,0.8945,0.889,0.80013025,0.790321
10:21:50,30-Sep-21,0.8945,0.888,0.80013025,0.788544
10:21:50,30-Sep-21,0.8945,0.887,0.80013025,0.786769
10:21:50,30-Sep-21,0.8945,0.886,0.80013025,0.784996
10:21:50,30-Sep-21,0.8945,0.885,0.80013025,0.783225
10:21:50,30-Sep-21,0.88,0.884,0.7744,0.781456
10:21:50,30-Sep-21,0.88,0.883,0.7744,0.779689
10:21:50,30-Sep-21,0.88,0.881,0.7744,0.776161
10:21:50,30-Sep-21,0.875,0.88,0.765625,0.7744
10:21:50,30-Sep-21,0.875,0.879,0.765625,0.772641
10:21:50,30-Sep-21,0.865,0.878,0.748225,0.770884
10:21:50,30-Sep-21,0.865,0.877,0.748225,0.769129
10:21:50,30-Sep-21,0.865,0.876,0.748225,0.767376
10:21:50,30-Sep-21,0.86,0.874,0.7396,0.763876
10:21:50,30-Sep-21,0.86,0.873,0.7396,0.762129
10:21:50,30-Sep-21,0.86,0.872,0.7396,0.760384
10:21:50,30-Sep-21,0.86,0.871,0.7396,0.758641
10:21:50,30-Sep-21,0.86,0.87,0.7396,0.7569
10:21:50,30-Sep-21,0.86,0.869,0.7396,0.755161
10:21:50,30-Sep-21,0.86,0.868,0.7396,0.753424
10:21:51,30-Sep-21,0.86,0.868,0.7396,0.753424
10:21:51,30-Sep-21,0.86,0.867,0.7396,0.751689
10:21:51,30-Sep-21,0.865,0.866,0.748225,0.749956
10:21:51,30-Sep-21,0.865,0.865,0.748225,0.748225
10:21:51,30-Sep-21,0.865,0.865,0.748225,0.748225
10:21:51,30-Sep-21,0.865,0.864,0.748225,0.746496
10:21:51,30-Sep-21,0.865,0.863,0.748225,0.744769
10:21:51,30-Sep-21,0.875,0.863,0.765625,0.744769
10:21:51,30-Sep-21,0.875,0.862,0.765625,0.743044
10:21:51,30-Sep-21,0.875,0.862,0.765625,0.743044
10:21:51,30-Sep-21,0.875,0.861,0.765625,0.741321
10:21:51,30-Sep-21,0.875,0.86,0.765625,0.7396
10:21:51,30-Sep-21,0.875,0.86,0.765625,0.7396
10:21:51,30-Sep-21,0.87,0.86,0.7569,0.7396
10:21:51,30-Sep-21,0.87,0.859,0.7569,0.737881
10:21:51,30-Sep-21,0.87,0.859,0.7569,0.737881
10:21:51,30-Sep-21,0.865,0.858,0.748225,0.736164
10:21:51,30-Sep-21,0.865,0.858,0.748225,0.736164
10:21:51,30-Sep-21,0.865,0.858,0.748225,0.736164
10:21:51,30-Sep-21,0.86,0.857,0.7396,0.734449
10:21:51,30-Sep-21,0.86,0.857,0.7396,0.734449
10:21:51,30-Sep-21,0.86,0.857,0.7396,0.734449
10:21:51,30-Sep-21,0.8455,0.857,0.71487025,0.734449
10:21:51,30-Sep-21,0.8455,0.857,0.71487025,0.734449
10:21:51,30-Sep-21,0.8455,0.857,0.71487025,0.734449
10:21:51,30-Sep-21,0.8455,0.858,0.71487025,0.736164
10:21:51,30-Sep-21,0.8455,0.858,0.71487025,0.736164
10:21:51,30-Sep-21,0.8455,0.858,0.71487025,0.736164
10:21:51,30-Sep-21,0.8455,0.859,0.71487025,0.737881
10:21:51,30-Sep-21,0.8455,0.859,0.71487025,0.737881
10:21:51,30-Sep-21,0.8455,0.86,0.71487025,0.7396
10:21:51,30-Sep-21,0.8455,0.86,0.71487025,0.7396
10:21:51,30-Sep-21,0.8455,0.861,0.71487025,0.741321
10:21:51,30-Sep-21,0.8505,0.862,0.72335025,0.743044
10:21:51,30-Sep-21,0.8505,0.863,0.72335025,0.744769
10:21:51,30-Sep-21,0.86,0.864,0.7396,0.746496
10:21:51,30-Sep-21,0.86,0.865,0.7396,0.748225
10:21:51,30-Sep-21,0.86,0.866,0.7396,0.749956
10:21:51,30-Sep-21,0.88,0.867,0.7744,0.751689
10:21:51,30-Sep-21,0.88,0.867,0.7744,0.751689
10:21:51,30-Sep-21,0.88,0.868,0.7744,0.753424
10:21:51,30-Sep-21,0.88,0.869,0.7744,0.755161
10:21:51,30-Sep-21,0.88,0.87,0.7744,0.7569
10:21:51,30-Sep-21,0.88,0.871,0.7744,0.758641
10:21:51,30-Sep-21,0.8845,0.872,0.78234025,0.760384
10:21:51,30-Sep-21,0.8845,0.872,0.78234025,0.760384
10:21:51,30-Sep-21,0.8845,0.873,0.78234025,0.762129
10:21:51,30-Sep-21,0.8845,0.873,0.78234025,0.762129
10:21:51,30-Sep-21,0.8845,0.874,0.78234025,0.763876
10:21:51,30-Sep-21,0.8845,0.874,0.78234025,0.763876
10:21:51,30-Sep-21,0.8845,0.875,0.78234025,0.765625
10:21:51,30-Sep-21,0.8845,0.875,0.78234025,0.765625
10:21:51,30-Sep-21,0.875,0.875,0.765625,0.765625
10:21:51,30-Sep-21,0.875,0.875,0.765625,0.765625
10:21:51,30-Sep-21,0.875,0.875,0.765625,0.765625
10:21:51,30-Sep-21,0.875,0.875,0.765625,0.765625
10:21:51,30-Sep-21,0.87,0.875,0.7569,0.765625
10:21:51,30-Sep-21,0.87,0.875,0.7569,0.765625
10:21:51,30-Sep-21,0.87,0.874,0.7569,0.763876
10:21:51,30-Sep-21,0.87,0.874,0.7569,0.763876
10:21:51,30-Sep-21,0.87,0.874,0.7569,0.763876
10:21:51,30-Sep-21,0.86,0.873,0.7396,0.762129
10:21:51,30-Sep-21,0.86,0.873,0.7396,0.762129
10:21:51,30-Sep-21,0.8555,0.873,0.73188025,0.762129
10:21:51,30-Sep-21,0.8555,0.872,0.73188025,0.760384
10:21:51,30-Sep-21,0.8555,0.872,0.73188025,0.760384
10:21:51,30-Sep-21,0.8555,0.871,0.73188025,0.758641
10:21:51,30-Sep-21,0.865,0.871,0.748225,0.758641
10:21:51,30-Sep-21,0.865,0.871,0.748225,0.758641
10:21:51,30-Sep-21,0.87,0.87,0.7569,0.7569
10:21:51,30-Sep-21,0.87,0.87,0.7569,0.7569
10:21:51,30-Sep-21,0.87,0.869,0.7569,0.755161
10:21:51,30-Sep-21,0.87,0.869,0.7569,0.755161
10:21:51,30-Sep-21,0.8845,0.868,0.78234025,0.753424
10:21:51,30-Sep-21,0.8845,0.868,0.78234025,0.753424
10:21:51,30-Sep-21,0.8845,0.868,0.78234025,0.753424
10:21:51,30-Sep-21,0.8845,0.867,0.78234025,0.751689
10:21:51,30-Sep-21,0.8845,0.867,0.78234025,0.751689
10:21:51,30-Sep-21,0.8845,0.867,0.78234025,0.751689
10:21:51,30-Sep-21,0.88,0.866,0.7744,0.749956
10:21:51,30-Sep-21,0.88,0.866,0.7744,0.749956
10:21:51,30-Sep-21,0.88,0.866,0.7744,0.749956
10:21:51,30-Sep-21,0.88,0.866,0.7744,0.749956
10:21:51,30-Sep-21,0.865,0.866,0.748225,0.749956
10:21:51,30-Sep-21,0.865,0.866,0.748225,0.749956
10:21:51,30-Sep-21,0.865,0.867,0.748225,0.751689
10:21:51,30-Sep-21,0.865,0.867,0.748225,0.751689
10:21:51,30-Sep-21,0.86,0.868,0.7396,0.753424
10:21:51,30-Sep-21,0.86,0.869,0.7396,0.755161
10:21:51,30-Sep-21,0.86,0.87,0.7396,0.7569
10:21:51,30-Sep-21,0.86,0.872,0.7396,0.760384
10:21:51,30-Sep-21,0.865,0.873,0.748225,0.762129
10:21:51,30-Sep-21,0.865,0.875,0.748225,0.765625
10:21:51,30-Sep-21,0.865,0.877,0.748225,0.769129
10:21:51,30-Sep-21,0.865,0.88,0.748225,0.7744
10:21:51,30-Sep-21,0.8845,0.882,0.78234025,0.777924
10:21:51,30-Sep-21,0.8845,0.885,0.78234025,0.783225
10:21:51,30-Sep-21,0.8945,0.889,0.80013025,0.790321
10:21:51,30-Sep-21,0.8945,0.892,0.80013025,0.795664
10:21:51,30-Sep-21,0.904,0.896,0.817216,0.802816
10:21:51,30-Sep-21,0.904,0.9,0.817216,0.81
10:21:51,30-Sep-21,0.914,0.905,0.835396,0.819025
10:21:51,30-Sep-21,0.914,0.91,0.835396,0.8281
10:21:51,30-Sep-21,0.914,0.915,0.835396,0.837225
10:21:51,30-Sep-21,0.914,0.92,0.835396,0.8464
10:21:51,30-Sep-21,0.914,0.926,0.835396,0.857476
10:21:51,30-Sep-21,0.914,0.932,0.835396,0.868624
10:21:51,30-Sep-21,0.9285,0.938,0.86211225,0.879844
10:21:51,30-Sep-21,0.9285,0.944,0.86211225,0.891136
10:21:51,30-Sep-21,0.9435,0.951,0.89019225,0.904401
10:21:51,30-Sep-21,0.9435,0.958,0.89019225,0.917764
10:21:51,30-Sep-21,0.953,0.965,0.908209,0.931225
10:21:51,30-Sep-21,0.953,0.972,0.908209,0.944784
10:21:51,30-Sep-21,0.953,0.979,0.908209,0.958441
10:21:51,30-Sep-21,0.9775,0.987,0.95550625,0.974169
10:21:51,30-Sep-21,0.9775,0.994,0.95550625,0.988036
10:21:51,30-Sep-21,0.9775,1.002,0.95550625,1.004004
10:21:51,30-Sep-21,1.007,1.009,1.014049,1.018081
10:21:51,30-Sep-21,1.007,1.017,1.014049,1.034289
10:21:51,30-Sep-21,1.036,1.024,1.073296,1.048576
10:21:51,30-Sep-21,1.036,1.032,1.073296,1.065024
10:21:51,30-Sep-21,1.0755,1.039,1.15670025,1.079521
10:21:51,30-Sep-21,1.0755,1.047,1.15670025,1.096209
10:21:51,30-Sep-21,1.095,1.054,1.199025,1.110916
10:21:51,30-Sep-21,1.095,1.061,1.199025,1.125721
10:21:51,30-Sep-21,1.095,1.068,1.199025,1.140624
10:21:51,30-Sep-21,1.1045,1.074,1.21992025,1.153476
10:21:51,30-Sep-21,1.1045,1.081,1.21992025,1.168561
10:21:51,30-Sep-21,1.1045,1.087,1.21992025,1.181569
10:21:51,30-Sep-21,1.1045,1.093,1.21992025,1.194649
10:21:51,30-Sep-21,1.1095,1.099,1.23099025,1.207801
10:21:51,30-Sep-21,1.1045,1.104,1.21992025,1.218816
10:21:51,30-Sep-21,1.1045,1.11,1.21992025,1.2321
10:21:51,30-Sep-21,1.1095,1.115,1.23099025,1.243225
10:21:51,30-Sep-21,1.1095,1.12,1.23099025,1.2544
10:21:51,30-Sep-21,1.1145,1.124,1.24211025,1.263376
10:21:51,30-Sep-21,1.1145,1.128,1.24211025,1.272384
10:21:51,30-Sep-21,1.1145,1.133,1.24211025,1.283689
10:21:51,30-Sep-21,1.1145,1.136,1.24211025,1.290496
10:21:51,30-Sep-21,1.1195,1.14,1.25328025,1.2996
10:21:51,30-Sep-21,1.1195,1.144,1.25328025,1.308736
10:21:51,30-Sep-21,1.129,1.147,1.274641,1.315609
10:21:51,30-Sep-21,1.129,1.15,1.274641,1.3225
10:21:51,30-Sep-21,1.1585,1.153,1.34212225,1.329409
10:21:51,30-Sep-21,1.1585,1.155,1.34212225,1.334025
10:21:51,30-Sep-21,1.168,1.158,1.364224,1.340964
10:21:52,30-Sep-21,1.168,1.16,1.364224,1.3456
10:21:52,30-Sep-21,1.168,1.162,1.364224,1.350244
10:21:52,30-Sep-21,1.178,1.164,1.387684,1.354896
10:21:52,30-Sep-21,1.178,1.165,1.387684,1.357225
10:21:52,30-Sep-21,1.178,1.167,1.387684,1.361889
10:21:52,30-Sep-21,1.178,1.168,1.387684,1.364224
10:21:52,30-Sep-21,1.178,1.169,1.387684,1.366561
10:21:52,30-Sep-21,1.178,1.169,1.387684,1.366561
10:21:52,30-Sep-21,1.178,1.17,1.387684,1.3689
10:21:52,30-Sep-21,1.178,1.171,1.387684,1.371241
10:21:52,30-Sep-21,1.178,1.171,1.387684,1.371241
10:21:52,30-Sep-21,1.168,1.171,1.364224,1.371241
10:21:52,30-Sep-21,1.168,1.171,1.364224,1.371241
10:21:52,30-Sep-21,1.168,1.171,1.364224,1.371241
10:21:52,30-Sep-21,1.163,1.17,1.352569,1.3689
10:21:52,30-Sep-21,1.163,1.17,1.352569,1.3689
10:21:52,30-Sep-21,1.163,1.169,1.352569,1.366561
10:21:52,30-Sep-21,1.1585,1.168,1.34212225,1.364224
10:21:52,30-Sep-21,1.1585,1.168,1.34212225,1.364224
10:21:52,30-Sep-21,1.1585,1.167,1.34212225,1.361889
10:21:52,30-Sep-21,1.1585,1.165,1.34212225,1.357225
10:21:52,30-Sep-21,1.1585,1.164,1.34212225,1.354896
10:21:52,30-Sep-21,1.139,1.163,1.297321,1.352569
10:21:52,30-Sep-21,1.139,1.161,1.297321,1.347921
10:21:52,30-Sep-21,1.139,1.159,1.297321,1.343281
10:21:52,30-Sep-21,1.139,1.157,1.297321,1.338649
10:21:52,30-Sep-21,1.139,1.155,1.297321,1.334025
10:21:52,30-Sep-21,1.139,1.153,1.297321,1.329409
10:21:52,30-Sep-21,1.139,1.151,1.297321,1.324801
10:21:52,30-Sep-21,1.139,1.148,1.297321,1.317904
10:21:52,30-Sep-21,1.139,1.145,1.297321,1.311025
10:21:52,30-Sep-21,1.1435,1.142,1.30759225,1.304164
10:21:52,30-Sep-21,1.1435,1.139,1.30759225,1.297321
10:21:52,30-Sep-21,1.1435,1.135,1.30759225,1.288225
10:21:52,30-Sep-21,1.1435,1.131,1.30759225,1.279161
10:21:52,30-Sep-21,1.1435,1.127,1.30759225,1.270129
10:21:52,30-Sep-21,1.1585,1.123,1.34212225,1.261129
10:21:52,30-Sep-21,1.1585,1.118,1.34212225,1.249924
10:21:52,30-Sep-21,1.1585,1.114,1.34212225,1.240996
10:21:52,30-Sep-21,1.139,1.109,1.297321,1.229881
10:21:52,30-Sep-21,1.139,1.103,1.297321,1.216609
10:21:52,30-Sep-21,1.139,1.098,1.297321,1.205604
10:21:52,30-Sep-21,1.095,1.092,1.199025,1.192464
10:21:52,30-Sep-21,1.095,1.086,1.199025,1.179396
10:21:52,30-Sep-21,1.095,1.08,1.199025,1.1664
10:21:52,30-Sep-21,1.0605,1.074,1.12466025,1.153476
10:21:52,30-Sep-21,1.0605,1.067,1.12466025,1.138489
10:21:52,30-Sep-21,1.0605,1.061,1.12466025,1.125721
10:21:52,30-Sep-21,1.0605,1.054,1.12466025,1.110916
10:21:52,30-Sep-21,1.0605,1.048,1.12466025,1.098304
10:21:52,30-Sep-21,1.0315,1.041,1.06399225,1.083681
10:21:52,30-Sep-21,1.0315,1.035,1.06399225,1.071225
10:21:52,30-Sep-21,1.0315,1.028,1.06399225,1.056784
10:21:52,30-Sep-21,0.997,1.022,0.994009,1.044484
10:21:52,30-Sep-21,0.997,1.016,0.994009,1.032256
10:21:52,30-Sep-21,0.997,1.01,0.994009,1.0201
10:21:52,30-Sep-21,0.9775,1.004,0.95550625,1.008016
10:21:52,30-Sep-21,0.9775,0.998,0.95550625,0.996004
10:21:52,30-Sep-21,0.958,0.992,0.917764,0.984064
10:21:52,30-Sep-21,0.958,0.987,0.917764,0.974169
10:21:52,30-Sep-21,0.958,0.982,0.917764,0.964324
10:21:52,30-Sep-21,0.958,0.977,0.917764,0.954529
10:21:52,30-Sep-21,0.948,0.972,0.898704,0.944784
10:21:52,30-Sep-21,0.948,0.967,0.898704,0.935089
10:21:52,30-Sep-21,0.948,0.963,0.898704,0.927369
10:21:52,30-Sep-21,0.948,0.959,0.898704,0.919681
10:21:52,30-Sep-21,0.953,0.955,0.908209,0.912025
10:21:52,30-Sep-21,0.953,0.951,0.908209,0.904401
10:21:52,30-Sep-21,0.953,0.948,0.908209,0.898704
10:21:52,30-Sep-21,0.953,0.944,0.908209,0.891136
10:21:52,30-Sep-21,0.953,0.941,0.908209,0.885481
10:21:52,30-Sep-21,0.958,0.938,0.917764,0.879844
10:21:52,30-Sep-21,0.958,0.935,0.917764,0.874225
10:21:52,30-Sep-21,0.953,0.932,0.908209,0.868624
10:21:52,30-Sep-21,0.953,0.93,0.908209,0.8649
10:21:52,30-Sep-21,0.953,0.927,0.908209,0.859329
10:21:52,30-Sep-21,0.953,0.925,0.908209,0.855625
10:21:52,30-Sep-21,0.9385,0.922,0.88078225,0.850084
10:21:52,30-Sep-21,0.9385,0.92,0.88078225,0.8464
10:21:52,30-Sep-21,0.924,0.918,0.853776,0.842724
10:21:52,30-Sep-21,0.924,0.916,0.853776,0.839056
10:21:52,30-Sep-21,0.914,0.914,0.835396,0.835396
10:21:52,30-Sep-21,0.914,0.912,0.835396,0.831744
10:21:52,30-Sep-21,0.8945,0.91,0.80013025,0.8281
10:21:52,30-Sep-21,0.8945,0.908,0.80013025,0.824464
10:21:52,30-Sep-21,0.8945,0.906,0.80013025,0.820836
10:21:52,30-Sep-21,0.8945,0.905,0.80013025,0.819025
10:21:52,30-Sep-21,0.8845,0.903,0.78234025,0.815409
10:21:52,30-Sep-21,0.8845,0.902,0.78234025,0.813604
10:21:52,30-Sep-21,0.88,0.9,0.7744,0.81
10:21:52,30-Sep-21,0.88,0.899,0.7744,0.808201
10:21:52,30-Sep-21,0.88,0.898,0.7744,0.806404
10:21:52,30-Sep-21,0.88,0.897,0.7744,0.804609
10:21:52,30-Sep-21,0.8995,0.895,0.80910025,0.801025
10:21:52,30-Sep-21,0.8995,0.894,0.80910025,0.799236
10:21:52,30-Sep-21,0.8995,0.893,0.80910025,0.797449
10:21:52,30-Sep-21,0.904,0.892,0.817216,0.795664
10:21:52,30-Sep-21,0.904,0.892,0.817216,0.795664
10:21:52,30-Sep-21,0.904,0.891,0.817216,0.793881
10:21:52,30-Sep-21,0.8995,0.89,0.80910025,0.7921
10:21:52,30-Sep-21,0.8995,0.889,0.80910025,0.790321
10:21:52,30-Sep-21,0.8995,0.888,0.80910025,0.788544
10:21:52,30-Sep-21,0.8995,0.888,0.80910025,0.788544
10:21:52,30-Sep-21,0.8945,0.887,0.80013025,0.786769
10:21:52,30-Sep-21,0.8945,0.886,0.80013025,0.784996
10:21:52,30-Sep-21,0.8945,0.886,0.80013025,0.784996
10:21:52,30-Sep-21,0.8945,0.885,0.80013025,0.783225
10:21:52,30-Sep-21,0.8945,0.885,0.80013025,0.783225
10:21:52,30-Sep-21,0.8845,0.884,0.78234025,0.781456
10:21:52,30-Sep-21,0.8845,0.884,0.78234025,0.781456
10:21:52,30-Sep-21,0.8845,0.884,0.78234025,0.781456
10:21:52,30-Sep-21,0.8845,0.884,0.78234025,0.781456
10:21:52,30-Sep-21,0.8845,0.884,0.78234025,0.781456
10:21:52,30-Sep-21,0.8845,0.884,0.78234025,0.781456
10:21:52,30-Sep-21,0.8845,0.884,0.78234025,0.781456
10:21:52,30-Sep-21,0.88,0.884,0.7744,0.781456
10:21:52,30-Sep-21,0.88,0.885,0.7744,0.783225
10:21:52,30-Sep-21,0.88,0.885,0.7744,0.783225
10:21:52,30-Sep-21,0.87,0.886,0.7569,0.784996
10:21:52,30-Sep-21,0.87,0.886,0.7569,0.784996
10:21:52,30-Sep-21,0.87,0.887,0.7569,0.786769
10:21:52,30-Sep-21,0.87,0.888,0.7569,0.788544
10:21:52,30-Sep-21,0.87,0.89,0.7569,0.7921
10:21:52,30-Sep-21,0.8845,0.891,0.78234025,0.793881
10:21:52,30-Sep-21,0.8845,0.892,0.78234025,0.795664
10:21:52,30-Sep-21,0.8845,0.894,0.78234025,0.799236
10:21:52,30-Sep-21,0.8995,0.895,0.80910025,0.801025
10:21:52,30-Sep-21,0.8995,0.897,0.80910025,0.804609
10:21:52,30-Sep-21,0.8995,0.899,0.80910025,0.808201
10:21:52,30-Sep-21,0.8995,0.901,0.80910025,0.811801
10:21:52,30-Sep-21,0.8995,0.902,0.80910025,0.813604
10:21:52,30-Sep-21,0.909,0.904,0.826281,0.817216
10:21:52,30-Sep-21,0.909,0.906,0.826281,0.820836
10:21:52,30-Sep-21,0.909,0.908,0.826281,0.824464
10:21:52,30-Sep-21,0.919,0.91,0.844561,0.8281
10:21:52,30-Sep-21,0.919,0.912,0.844561,0.831744
10:21:52,30-Sep-21,0.919,0.914,0.844561,0.835396
10:21:52,30-Sep-21,0.924,0.916,0.853776,0.839056
10:21:52,30-Sep-21,0.924,0.918,0.853776,0.842724
10:21:52,30-Sep-21,0.924,0.92,0.853776,0.8464
10:21:52,30-Sep-21,0.924,0.921,0.853776,0.848241
10:21:52,30-Sep-21,0.924,0.923,0.853776,0.851929
10:21:52,30-Sep-21,0.924,0.924,0.853776,0.853776
10:21:52,30-Sep-21,0.9285,0.926,0.86211225,0.857476
10:21:52,30-Sep-21,0.9285,0.927,0.86211225,0.859329
10:21:52,30-Sep-21,0.919,0.928,0.844561,0.861184
10:21:52,30-Sep-21,0.924,0.929,0.853776,0.863041
10:21:52,30-Sep-21,0.924,0.93,0.853776,0.8649
10:21:52,30-Sep-21,0.9285,0.931,0.86211225,0.866761
10:21:52,30-Sep-21,0.9285,0.932,0.86211225,0.868624
10:21:52,30-Sep-21,0.9335,0.932,0.87142225,0.868624
10:21:52,30-Sep-21,0.9335,0.932,0.87142225,0.868624
10:21:52,30-Sep-21,0.9435,0.933,0.89019225,0.870489
10:21:53,30-Sep-21,0.963,0.933,0.927369,0.870489
10:21:53,30-Sep-21,0.953,0.932,0.908209,0.868624
10:21:53,30-Sep-21,0.953,0.932,0.908209,0.868624
10:21:53,30-Sep-21,0.948,0.932,0.898704,0.868624
10:21:53,30-Sep-21,0.9285,0.931,0.86211225,0.866761
10:21:53,30-Sep-21,0.924,0.93,0.853776,0.8649
10:21:53,30-Sep-21,0.924,0.929,0.853776,0.863041
10:21:53,30-Sep-21,0.909,0.928,0.826281,0.861184
10:21:53,30-Sep-21,0.909,0.927,0.826281,0.859329
10:21:53,30-Sep-21,0.909,0.926,0.826281,0.857476
10:21:53,30-Sep-21,0.909,0.925,0.826281,0.855625
10:21:53,30-Sep-21,0.904,0.923,0.817216,0.851929
10:21:53,30-Sep-21,0.919,0.922,0.844561,0.850084
10:21:53,30-Sep-21,0.919,0.92,0.844561,0.8464
10:21:53,30-Sep-21,0.919,0.919,0.844561,0.844561
10:21:53,30-Sep-21,0.9285,0.917,0.86211225,0.840889
10:21:53,30-Sep-21,0.9285,0.915,0.86211225,0.837225
10:21:53,30-Sep-21,0.9285,0.914,0.86211225,0.835396
10:21:53,30-Sep-21,0.924,0.912,0.853776,0.831744
10:21:53,30-Sep-21,0.924,0.91,0.853776,0.8281
10:21:53,30-Sep-21,0.914,0.908,0.835396,0.824464
10:21:53,30-Sep-21,0.914,0.906,0.835396,0.820836
10:21:53,30-Sep-21,0.909,0.905,0.826281,0.819025
10:21:53,30-Sep-21,0.909,0.903,0.826281,0.815409
10:21:53,30-Sep-21,0.8895,0.901,0.79121025,0.811801
10:21:53,30-Sep-21,0.8895,0.899,0.79121025,0.808201
10:21:53,30-Sep-21,0.8895,0.898,0.79121025,0.806404
10:21:53,30-Sep-21,0.8845,0.896,0.78234025,0.802816
10:21:53,30-Sep-21,0.8845,0.895,0.78234025,0.801025
10:21:53,30-Sep-21,0.8845,0.893,0.78234025,0.797449
10:21:53,30-Sep-21,0.88,0.892,0.7744,0.795664
10:21:53,30-Sep-21,0.88,0.891,0.7744,0.793881
10:21:53,30-Sep-21,0.88,0.89,0.7744,0.7921
10:21:53,30-Sep-21,0.8945,0.889,0.80013025,0.790321
10:21:53,30-Sep-21,0.8945,0.888,0.80013025,0.788544
10:21:53,30-Sep-21,0.8945,0.887,0.80013025,0.786769
10:21:53,30-Sep-21,0.8995,0.887,0.80910025,0.786769
10:21:53,30-Sep-21,0.8995,0.887,0.80910025,0.786769
10:21:53,30-Sep-21,0.8995,0.887,0.80910025,0.786769
10:21:53,30-Sep-21,0.8995,0.887,0.80910025,0.786769
10:21:53,30-Sep-21,0.8995,0.887,0.80910025,0.786769
10:21:53,30-Sep-21,0.8995,0.888,0.80910025,0.788544
10:21:53,30-Sep-21,0.8945,0.888,0.80013025,0.788544
10:21:53,30-Sep-21,0.8945,0.889,0.80013025,0.790321
10:21:53,30-Sep-21,0.8945,0.891,0.80013025,0.793881
10:21:53,30-Sep-21,0.8945,0.892,0.80013025,0.795664
10:21:53,30-Sep-21,0.8895,0.894,0.79121025,0.799236
10:21:53,30-Sep-21,0.8895,0.896,0.79121025,0.802816
10:21:53,30-Sep-21,0.8945,0.898,0.80013025,0.806404
10:21:53,30-Sep-21,0.8945,0.901,0.80013025,0.811801
10:21:53,30-Sep-21,0.8945,0.903,0.80013025,0.815409
10:21:53,30-Sep-21,0.8895,0.906,0.79121025,0.820836
10:21:53,30-Sep-21,0.8895,0.91,0.79121025,0.8281
10:21:53,30-Sep-21,0.8945,0.913,0.80013025,0.833569
10:21:53,30-Sep-21,0.8945,0.917,0.80013025,0.840889
10:21:53,30-Sep-21,0.8945,0.921,0.80013025,0.848241
10:21:53,30-Sep-21,0.8945,0.925,0.80013025,0.855625
10:21:53,30-Sep-21,0.8945,0.93,0.80013025,0.8649
10:21:53,30-Sep-21,0.919,0.935,0.844561,0.874225
10:21:53,30-Sep-21,0.919,0.939,0.844561,0.881721
10:21:53,30-Sep-21,0.9385,0.945,0.88078225,0.893025
10:21:53,30-Sep-21,0.963,0.95,0.927369,0.9025
10:21:53,30-Sep-21,0.963,0.955,0.927369,0.912025
10:21:53,30-Sep-21,0.9825,0.961,0.96530625,0.923521
10:21:53,30-Sep-21,0.992,0.966,0.984064,0.933156
10:21:53,30-Sep-21,0.992,0.972,0.984064,0.944784
10:21:53,30-Sep-21,1.007,0.978,1.014049,0.956484
10:21:53,30-Sep-21,1.007,0.983,1.014049,0.966289
10:21:53,30-Sep-21,1.007,0.989,1.014049,0.978121
10:21:53,30-Sep-21,1.0165,0.995,1.03327225,0.990025
10:21:53,30-Sep-21,1.0115,1.001,1.02313225,1.002001
10:21:53,30-Sep-21,1.0115,1.007,1.02313225,1.014049
10:21:53,30-Sep-21,1.0215,1.013,1.04346225,1.026169
10:21:53,30-Sep-21,1.0265,1.018,1.05370225,1.036324
10:21:53,30-Sep-21,1.0265,1.024,1.05370225,1.048576
10:21:53,30-Sep-21,1.0265,1.03,1.05370225,1.0609
10:21:53,30-Sep-21,1.036,1.036,1.073296,1.073296
10:21:53,30-Sep-21,1.036,1.042,1.073296,1.085764
10:21:53,30-Sep-21,1.0705,1.048,1.14597025,1.098304
10:21:53,30-Sep-21,1.08,1.054,1.1664,1.110916
10:21:53,30-Sep-21,1.08,1.06,1.1664,1.1236
10:21:53,30-Sep-21,1.095,1.067,1.199025,1.138489
10:21:53,30-Sep-21,1.095,1.073,1.199025,1.151329
10:21:53,30-Sep-21,1.095,1.079,1.199025,1.164241
10:21:53,30-Sep-21,1.095,1.086,1.199025,1.179396
10:21:53,30-Sep-21,1.1045,1.092,1.21992025,1.192464
10:21:53,30-Sep-21,1.1045,1.099,1.21992025,1.207801
10:21:53,30-Sep-21,1.095,1.106,1.199025,1.223236
10:21:53,30-Sep-21,1.0995,1.113,1.20890025,1.238769
10:21:53,30-Sep-21,1.0995,1.12,1.20890025,1.2544
10:21:53,30-Sep-21,1.095,1.127,1.199025,1.270129
10:21:53,30-Sep-21,1.095,1.135,1.199025,1.288225
10:21:53,30-Sep-21,1.095,1.142,1.199025,1.304164
10:21:53,30-Sep-21,1.1045,1.15,1.21992025,1.3225
10:21:53,30-Sep-21,1.1045,1.158,1.21992025,1.340964
10:21:53,30-Sep-21,1.129,1.166,1.274641,1.359556
10:21:53,30-Sep-21,1.1535,1.174,1.33056225,1.378276
10:21:53,30-Sep-21,1.1535,1.182,1.33056225,1.397124
10:21:53,30-Sep-21,1.183,1.19,1.399489,1.4161
10:21:53,30-Sep-21,1.1975,1.198,1.43400625,1.435204
10:21:53,30-Sep-21,1.1975,1.206,1.43400625,1.454436
10:21:53,30-Sep-21,1.2025,1.214,1.44600625,1.473796
10:21:54,30-Sep-21,1.2025,1.222,1.44600625,1.493284
10:21:54,30-Sep-21,1.2025,1.229,1.44600625,1.510441
10:21:54,30-Sep-21,1.2025,1.236,1.44600625,1.527696
10:21:54,30-Sep-21,1.2025,1.243,1.44600625,1.545049
10:21:54,30-Sep-21,1.2025,1.25,1.44600625,1.5625
10:21:54,30-Sep-21,1.178,1.256,1.387684,1.577536
10:21:54,30-Sep-21,1.31,1.262,1.7161,1.592644
10:21:54,30-Sep-21,1.31,1.267,1.7161,1.605289
10:21:54,30-Sep-21,1.3585,1.272,1.84552225,1.617984
10:21:54,30-Sep-21,1.3245,1.276,1.75430025,1.628176
10:21:54,30-Sep-21,1.3245,1.279,1.75430025,1.635841
10:21:54,30-Sep-21,1.3785,1.282,1.90026225,1.643524
10:21:54,30-Sep-21,1.3785,1.284,1.90026225,1.648656
10:21:54,30-Sep-21,1.3785,1.285,1.90026225,1.651225
10:21:54,30-Sep-21,1.354,1.286,1.833316,1.653796
10:21:54,30-Sep-21,1.354,1.286,1.833316,1.653796
10:21:54,30-Sep-21,1.3245,1.285,1.75430025,1.651225
10:21:54,30-Sep-21,1.3245,1.284,1.75430025,1.648656
10:21:54,30-Sep-21,1.295,1.282,1.677025,1.643524
10:21:54,30-Sep-21,1.2365,1.279,1.52893225,1.635841
10:21:54,30-Sep-21,1.2365,1.276,1.52893225,1.628176
10:21:54,30-Sep-21,1.222,1.272,1.493284,1.617984
10:21:54,30-Sep-21,1.222,1.267,1.493284,1.605289
10:21:54,30-Sep-21,1.222,1.262,1.493284,1.592644
10:21:54,30-Sep-21,1.2025,1.257,1.44600625,1.580049
10:21:54,30-Sep-21,1.2025,1.251,1.44600625,1.565001
10:21:54,30-Sep-21,1.212,1.244,1.468944,1.547536
10:21:54,30-Sep-21,1.212,1.238,1.468944,1.532644
10:21:54,30-Sep-21,1.212,1.231,1.468944,1.515361
10:21:54,30-Sep-21,1.217,1.223,1.481089,1.495729
10:21:54,30-Sep-21,1.217,1.215,1.481089,1.476225
10:21:54,30-Sep-21,1.1975,1.207,1.43400625,1.456849
10:21:54,30-Sep-21,1.1875,1.199,1.41015625,1.437601
10:21:54,30-Sep-21,1.1875,1.19,1.41015625,1.4161
10:21:54,30-Sep-21,1.168,1.181,1.364224,1.394761
10:21:54,30-Sep-21,1.168,1.172,1.364224,1.373584
10:21:54,30-Sep-21,1.1585,1.163,1.34212225,1.352569
10:21:54,30-Sep-21,1.134,1.154,1.285956,1.331716
10:21:54,30-Sep-21,1.124,1.144,1.263376,1.308736
10:21:54,30-Sep-21,1.124,1.134,1.263376,1.285956
10:21:54,30-Sep-21,1.1145,1.124,1.24211025,1.263376
10:21:54,30-Sep-21,1.1145,1.114,1.24211025,1.240996
10:21:54,30-Sep-21,1.1145,1.104,1.24211025,1.218816
10:21:54,30-Sep-21,1.129,1.094,1.274641,1.196836
10:21:54,30-Sep-21,1.129,1.084,1.274641,1.175056
10:21:54,30-Sep-21,1.124,1.074,1.263376,1.153476
10:21:54,30-Sep-21,1.1145,1.063,1.24211025,1.129969
10:21:54,30-Sep-21,1.1145,1.053,1.24211025,1.108809
10:21:54,30-Sep-21,1.1145,1.043,1.24211025,1.087849
10:21:54,30-Sep-21,1.095,1.032,1.199025,1.065024
10:21:54,30-Sep-21,1.0555,1.022,1.11408025,1.044484
10:21:54,30-Sep-21,1.007,1.012,1.014049,1.024144
10:21:54,30-Sep-21,0.9675,1.003,0.93605625,1.006009
10:21:54,30-Sep-21,0.9675,0.993,0.93605625,0.986049
10:21:54,30-Sep-21,0.9385,0.984,0.88078225,0.968256
10:21:54,30-Sep-21,0.9285,0.975,0.86211225,0.950625
10:21:54,30-Sep-21,0.919,0.966,0.844561,0.933156
10:21:54,30-Sep-21,0.919,0.958,0.844561,0.917764
10:21:54,30-Sep-21,0.919,0.95,0.844561,0.9025
10:21:54,30-Sep-21,0.919,0.942,0.844561,0.887364
10:21:54,30-Sep-21,0.924,0.935,0.853776,0.874225
10:21:54,30-Sep-21,0.924,0.928,0.853776,0.861184
10:21:54,30-Sep-21,0.919,0.922,0.844561,0.850084
10:21:54,30-Sep-21,0.909,0.916,0.826281,0.839056
10:21:54,30-Sep-21,0.8995,0.911,0.80910025,0.829921
10:21:54,30-Sep-21,0.8995,0.906,0.80910025,0.820836
10:21:54,30-Sep-21,0.8995,0.901,0.80910025,0.811801
10:21:54,30-Sep-21,0.8845,0.897,0.78234025,0.804609
10:21:54,30-Sep-21,0.8845,0.893,0.78234025,0.797449
10:21:54,30-Sep-21,0.88,0.89,0.7744,0.7921
10:21:54,30-Sep-21,0.88,0.887,0.7744,0.786769
10:21:54,30-Sep-21,0.875,0.884,0.765625,0.781456
10:21:54,30-Sep-21,0.875,0.882,0.765625,0.777924
10:21:54,30-Sep-21,0.875,0.88,0.765625,0.7744
10:21:54,30-Sep-21,0.875,0.879,0.765625,0.772641
10:21:54,30-Sep-21,0.875,0.877,0.765625,0.769129
10:21:54,30-Sep-21,0.8945,0.876,0.80013025,0.767376
10:21:54,30-Sep-21,0.8945,0.876,0.80013025,0.767376
10:21:54,30-Sep-21,0.8945,0.875,0.80013025,0.765625
10:21:54,30-Sep-21,0.8995,0.875,0.80910025,0.765625
10:21:54,30-Sep-21,0.8995,0.875,0.80910025,0.765625
10:21:54,30-Sep-21,0.8945,0.875,0.80013025,0.765625
10:21:54,30-Sep-21,0.8945,0.875,0.80013025,0.765625
10:21:54,30-Sep-21,0.88,0.875,0.7744,0.765625
10:21:54,30-Sep-21,0.875,0.876,0.765625,0.767376
10:21:55,30-Sep-21,0.875,0.876,0.765625,0.767376
10:21:55,30-Sep-21,0.865,0.877,0.748225,0.769129
10:21:55,30-Sep-21,0.865,0.877,0.748225,0.769129
10:21:55,30-Sep-21,0.865,0.878,0.748225,0.770884
10:21:55,30-Sep-21,0.87,0.879,0.7569,0.772641
10:21:55,30-Sep-21,0.87,0.879,0.7569,0.772641
10:21:55,30-Sep-21,0.87,0.88,0.7569,0.7744
10:21:55,30-Sep-21,0.8845,0.881,0.78234025,0.776161
10:21:55,30-Sep-21,0.8995,0.882,0.80910025,0.777924
10:21:55,30-Sep-21,0.904,0.882,0.817216,0.777924
10:21:55,30-Sep-21,0.904,0.883,0.817216,0.779689
10:21:55,30-Sep-21,0.8995,0.883,0.80910025,0.779689
10:21:55,30-Sep-21,0.8945,0.884,0.80013025,0.781456
10:21:55,30-Sep-21,0.8945,0.884,0.80013025,0.781456
10:21:55,30-Sep-21,0.88,0.885,0.7744,0.783225
10:21:55,30-Sep-21,0.875,0.885,0.765625,0.783225
10:21:55,30-Sep-21,0.875,0.885,0.765625,0.783225
10:21:55,30-Sep-21,0.875,0.886,0.765625,0.784996
10:21:55,30-Sep-21,0.87,0.886,0.7569,0.784996
10:21:55,30-Sep-21,0.87,0.886,0.7569,0.784996
10:21:55,30-Sep-21,0.87,0.886,0.7569,0.784996
10:21:55,30-Sep-21,0.87,0.886,0.7569,0.784996
10:21:55,30-Sep-21,0.87,0.886,0.7569,0.784996
10:21:55,30-Sep-21,0.8895,0.886,0.79121025,0.784996
10:21:55,30-Sep-21,0.8945,0.885,0.80013025,0.783225
10:21:55,30-Sep-21,0.8945,0.885,0.80013025,0.783225
10:21:55,30-Sep-21,0.8945,0.885,0.80013025,0.783225
10:21:55,30-Sep-21,0.8995,0.884,0.80910025,0.781456
10:21:55,30-Sep-21,0.8995,0.884,0.80910025,0.781456
10:21:55,30-Sep-21,0.8995,0.883,0.80910025,0.779689
10:21:55,30-Sep-21,0.8895,0.883,0.79121025,0.779689
10:21:55,30-Sep-21,0.8845,0.882,0.78234025,0.777924
10:21:55,30-Sep-21,0.8845,0.882,0.78234025,0.777924
10:21:55,30-Sep-21,0.88,0.881,0.7744,0.776161
10:21:55,30-Sep-21,0.88,0.88,0.7744,0.7744
10:21:55,30-Sep-21,0.88,0.88,0.7744,0.7744
10:21:55,30-Sep-21,0.87,0.879,0.7569,0.772641
10:21:55,30-Sep-21,0.87,0.879,0.7569,0.772641
10:21:55,30-Sep-21,0.865,0.878,0.748225,0.770884
10:21:55,30-Sep-21,0.865,0.878,0.748225,0.770884
10:21:55,30-Sep-21,0.87,0.877,0.7569,0.769129
10:21:55,30-Sep-21,0.87,0.877,0.7569,0.769129
10:21:55,30-Sep-21,0.8895,0.877,0.79121025,0.769129
10:21:55,30-Sep-21,0.8895,0.876,0.79121025,0.767376
10:21:55,30-Sep-21,0.8895,0.876,0.79121025,0.767376
10:21:55,30-Sep-21,0.8945,0.876,0.80013025,0.767376
10:21:55,30-Sep-21,0.8945,0.877,0.80013025,0.769129
10:21:55,30-Sep-21,0.8945,0.877,0.80013025,0.769129
10:21:55,30-Sep-21,0.8945,0.877,0.80013025,0.769129
10:21:55,30-Sep-21,0.8945,0.878,0.80013025,0.770884
10:21:55,30-Sep-21,0.8945,0.879,0.80013025,0.772641
10:21:55,30-Sep-21,0.8845,0.88,0.78234025,0.7744
10:21:55,30-Sep-21,0.8845,0.882,0.78234025,0.777924
10:21:55,30-Sep-21,0.8845,0.883,0.78234025,0.779689
10:21:55,30-Sep-21,0.875,0.885,0.765625,0.783225
10:21:55,30-Sep-21,0.87,0.887,0.7569,0.786769
10:21:55,30-Sep-21,0.87,0.89,0.7569,0.7921
10:21:55,30-Sep-21,0.87,0.892,0.7569,0.795664
10:21:55,30-Sep-21,0.87,0.895,0.7569,0.801025
10:21:55,30-Sep-21,0.87,0.898,0.7569,0.806404
10:21:55,30-Sep-21,0.88,0.902,0.7744,0.813604
10:21:55,30-Sep-21,0.8845,0.906,0.78234025,0.820836
10:21:55,30-Sep-21,0.8845,0.91,0.78234025,0.8281
10:21:55,30-Sep-21,0.8995,0.914,0.80910025,0.835396
10:21:55,30-Sep-21,0.914,0.918,0.835396,0.842724
10:21:55,30-Sep-21,0.914,0.923,0.835396,0.851929
10:21:55,30-Sep-21,0.914,0.928,0.835396,0.861184
10:21:55,30-Sep-21,0.9335,0.933,0.87142225,0.870489
10:21:55,30-Sep-21,0.9335,0.938,0.87142225,0.879844
10:21:55,30-Sep-21,0.9385,0.943,0.88078225,0.889249
10:21:55,30-Sep-21,0.948,0.949,0.898704,0.900601
10:21:55,30-Sep-21,0.948,0.954,0.898704,0.910116
10:21:55,30-Sep-21,0.948,0.96,0.898704,0.9216
10:21:55,30-Sep-21,0.963,0.965,0.927369,0.931225
10:21:55,30-Sep-21,0.963,0.97,0.927369,0.9409
10:21:55,30-Sep-21,0.963,0.975,0.927369,0.950625
10:21:55,30-Sep-21,0.9775,0.98,0.95550625,0.9604
10:21:55,30-Sep-21,0.9875,0.985,0.97515625,0.970225
10:21:55,30-Sep-21,1.0165,0.99,1.03327225,0.9801
10:21:55,30-Sep-21,1.0315,0.994,1.06399225,0.988036
10:21:55,30-Sep-21,1.0315,0.999,1.06399225,0.998001
10:21:55,30-Sep-21,1.0315,1.003,1.06399225,1.006009
10:21:55,30-Sep-21,1.041,1.006,1.083681,1.012036
10:21:55,30-Sep-21,1.046,1.01,1.094116,1.0201
10:21:55,30-Sep-21,1.041,1.013,1.083681,1.026169
10:21:55,30-Sep-21,1.0265,1.016,1.05370225,1.032256
10:21:55,30-Sep-21,1.0265,1.018,1.05370225,1.036324
10:21:55,30-Sep-21,1.0215,1.02,1.04346225,1.0404
10:21:56,30-Sep-21,1.0215,1.022,1.04346225,1.044484
10:21:56,30-Sep-21,1.0115,1.024,1.02313225,1.048576
10:21:56,30-Sep-21,1.0115,1.025,1.02313225,1.050625
10:21:56,30-Sep-21,1.0215,1.026,1.04346225,1.052676
10:21:56,30-Sep-21,1.0315,1.026,1.06399225,1.052676
10:21:56,30-Sep-21,1.0315,1.026,1.06399225,1.052676
10:21:56,30-Sep-21,1.0315,1.027,1.06399225,1.054729
10:21:56,30-Sep-21,1.036,1.026,1.073296,1.052676
10:21:56,30-Sep-21,1.046,1.026,1.094116,1.052676
10:21:56,30-Sep-21,1.036,1.025,1.073296,1.050625
10:21:56,30-Sep-21,1.0265,1.024,1.05370225,1.048576
10:21:56,30-Sep-21,1.0165,1.023,1.03327225,1.046529
10:21:56,30-Sep-21,0.997,1.022,0.994009,1.044484
10:21:56,30-Sep-21,0.997,1.02,0.994009,1.0404
10:21:56,30-Sep-21,0.992,1.019,0.984064,1.038361
10:21:56,30-Sep-21,0.9875,1.017,0.97515625,1.034289
10:21:56,30-Sep-21,0.992,1.015,0.984064,1.030225
10:21:56,30-Sep-21,0.992,1.013,0.984064,1.026169
10:21:56,30-Sep-21,0.997,1.011,0.994009,1.022121
10:21:56,30-Sep-21,0.997,1.009,0.994009,1.018081
10:21:56,30-Sep-21,1.0165,1.007,1.03327225,1.014049
10:21:56,30-Sep-21,1.0215,1.005,1.04346225,1.010025
10:21:56,30-Sep-21,1.0165,1.003,1.03327225,1.006009
10:21:56,30-Sep-21,1.0115,1,1.02313225,1
10:21:56,30-Sep-21,1.002,0.998,1.004004,0.996004
10:21:56,30-Sep-21,1.002,0.996,1.004004,0.992016
10:21:56,30-Sep-21,1.002,0.993,1.004004,0.986049
10:21:56,30-Sep-21,0.992,0.991,0.984064,0.982081
10:21:56,30-Sep-21,0.992,0.989,0.984064,0.978121
10:21:56,30-Sep-21,0.9825,0.987,0.96530625,0.974169
10:21:56,30-Sep-21,0.9775,0.984,0.95550625,0.968256
10:21:56,30-Sep-21,0.9775,0.982,0.95550625,0.964324
10:21:56,30-Sep-21,0.9725,0.98,0.94575625,0.9604
10:21:56,30-Sep-21,0.9725,0.977,0.94575625,0.954529
10:21:56,30-Sep-21,0.9725,0.975,0.94575625,0.950625
10:21:56,30-Sep-21,0.9725,0.973,0.94575625,0.946729
10:21:56,30-Sep-21,0.9725,0.971,0.94575625,0.942841
10:21:56,30-Sep-21,0.9725,0.969,0.94575625,0.938961
10:21:56,30-Sep-21,0.9725,0.967,0.94575625,0.935089
10:21:56,30-Sep-21,0.9825,0.965,0.96530625,0.931225
10:21:56,30-Sep-21,0.9775,0.963,0.95550625,0.927369
10:21:56,30-Sep-21,0.9775,0.961,0.95550625,0.923521
10:21:56,30-Sep-21,0.9675,0.959,0.93605625,0.919681
10:21:56,30-Sep-21,0.9675,0.958,0.93605625,0.917764
10:21:56,30-Sep-21,0.958,0.956,0.917764,0.913936
10:21:56,30-Sep-21,0.958,0.955,0.917764,0.912025
10:21:56,30-Sep-21,0.9385,0.953,0.88078225,0.908209
10:21:56,30-Sep-21,0.9335,0.952,0.87142225,0.906304
10:21:56,30-Sep-21,0.9285,0.951,0.86211225,0.904401
10:21:56,30-Sep-21,0.9285,0.949,0.86211225,0.900601
10:21:56,30-Sep-21,0.9285,0.948,0.86211225,0.898704
10:21:56,30-Sep-21,0.9335,0.947,0.87142225,0.896809
10:21:56,30-Sep-21,0.948,0.946,0.898704,0.894916
10:21:56,30-Sep-21,0.948,0.946,0.898704,0.894916
10:21:56,30-Sep-21,0.953,0.945,0.908209,0.893025
10:21:56,30-Sep-21,0.958,0.944,0.917764,0.891136
10:21:56,30-Sep-21,0.958,0.943,0.917764,0.889249
10:21:56,30-Sep-21,0.958,0.943,0.917764,0.889249
10:21:56,30-Sep-21,0.9435,0.943,0.89019225,0.889249
10:21:56,30-Sep-21,0.9385,0.942,0.88078225,0.887364
10:21:56,30-Sep-21,0.9385,0.942,0.88078225,0.887364
10:21:56,30-Sep-21,0.924,0.941,0.853776,0.885481
10:21:56,30-Sep-21,0.924,0.941,0.853776,0.885481
10:21:56,30-Sep-21,0.924,0.941,0.853776,0.885481
10:21:56,30-Sep-21,0.924,0.941,0.853776,0.885481
10:21:56,30-Sep-21,0.9435,0.941,0.89019225,0.885481
10:21:56,30-Sep-21,0.9435,0.941,0.89019225,0.885481
10:21:56,30-Sep-21,0.953,0.94,0.908209,0.8836
10:21:56,30-Sep-21,0.9675,0.94,0.93605625,0.8836
10:21:56,30-Sep-21,0.9675,0.94,0.93605625,0.8836
10:21:56,30-Sep-21,0.9675,0.94,0.93605625,0.8836
10:21:56,30-Sep-21,0.958,0.94,0.917764,0.8836
10:21:56,30-Sep-21,0.948,0.94,0.898704,0.8836
10:21:56,30-Sep-21,0.948,0.94,0.898704,0.8836
10:21:56,30-Sep-21,0.9335,0.94,0.87142225,0.8836
10:21:56,30-Sep-21,0.9285,0.94,0.86211225,0.8836
10:21:56,30-Sep-21,0.9285,0.94,0.86211225,0.8836
10:21:56,30-Sep-21,0.924,0.94,0.853776,0.8836
10:21:56,30-Sep-21,0.919,0.94,0.844561,0.8836
10:21:57,30-Sep-21,0.924,0.94,0.853776,0.8836
10:21:57,30-Sep-21,0.924,0.939,0.853776,0.881721
10:21:57,30-Sep-21,0.924,0.939,0.853776,0.881721
10:21:57,30-Sep-21,0.9435,0.939,0.89019225,0.881721
10:21:57,30-Sep-21,0.953,0.939,0.908209,0.881721
10:21:57,30-Sep-21,0.953,0.939,0.908209,0.881721
10:21:57,30-Sep-21,0.953,0.939,0.908209,0.881721
10:21:57,30-Sep-21,0.953,0.939,0.908209,0.881721
10:21:57,30-Sep-21,0.953,0.939,0.908209,0.881721
10:21:57,30-Sep-21,0.9435,0.939,0.89019225,0.881721
10:21:57,30-Sep-21,0.9435,0.939,0.89019225,0.881721
10:21:57,30-Sep-21,0.9385,0.939,0.88078225,0.881721
10:21:57,30-Sep-21,0.9385,0.939,0.88078225,0.881721
10:21:57,30-Sep-21,0.9385,0.939,0.88078225,0.881721
10:21:57,30-Sep-21,0.9335,0.939,0.87142225,0.881721
10:21:57,30-Sep-21,0.9335,0.939,0.87142225,0.881721
10:21:57,30-Sep-21,0.9285,0.939,0.86211225,0.881721
10:21:57,30-Sep-21,0.924,0.939,0.853776,0.881721
10:21:57,30-Sep-21,0.924,0.939,0.853776,0.881721
10:21:57,30-Sep-21,0.9285,0.939,0.86211225,0.881721
10:21:57,30-Sep-21,0.9285,0.939,0.86211225,0.881721
10:21:57,30-Sep-21,0.9285,0.939,0.86211225,0.881721
10:21:57,30-Sep-21,0.9285,0.939,0.86211225,0.881721
10:21:57,30-Sep-21,0.9285,0.939,0.86211225,0.881721
10:21:57,30-Sep-21,0.948,0.939,0.898704,0.881721
10:21:57,30-Sep-21,0.958,0.939,0.917764,0.881721
10:21:57,30-Sep-21,0.958,0.939,0.917764,0.881721
10:21:57,30-Sep-21,0.958,0.94,0.917764,0.8836
10:21:57,30-Sep-21,0.958,0.94,0.917764,0.8836
10:21:57,30-Sep-21,0.958,0.94,0.917764,0.8836
10:21:57,30-Sep-21,0.953,0.94,0.908209,0.8836
10:21:57,30-Sep-21,0.953,0.94,0.908209,0.8836
10:21:57,30-Sep-21,0.953,0.94,0.908209,0.8836
10:21:57,30-Sep-21,0.9335,0.94,0.87142225,0.8836
10:21:57,30-Sep-21,0.9335,0.94,0.87142225,0.8836
10:21:57,30-Sep-21,0.9285,0.94,0.86211225,0.8836
10:21:57,30-Sep-21,0.9285,0.94,0.86211225,0.8836
10:21:57,30-Sep-21,0.9285,0.941,0.86211225,0.885481
10:21:57,30-Sep-21,0.9285,0.941,0.86211225,0.885481
10:21:57,30-Sep-21,0.9285,0.941,0.86211225,0.885481
10:21:57,30-Sep-21,0.9285,0.941,0.86211225,0.885481
10:21:57,30-Sep-21,0.9285,0.941,0.86211225,0.885481
10:21:57,30-Sep-21,0.9285,0.942,0.86211225,0.887364
10:21:57,30-Sep-21,0.9285,0.942,0.86211225,0.887364
10:21:57,30-Sep-21,0.9285,0.942,0.86211225,0.887364
10:21:57,30-Sep-21,0.948,0.942,0.898704,0.887364
10:21:57,30-Sep-21,0.948,0.942,0.898704,0.887364
10:21:57,30-Sep-21,0.948,0.943,0.898704,0.889249
10:21:57,30-Sep-21,0.948,0.943,0.898704,0.889249
10:21:57,30-Sep-21,0.948,0.943,0.898704,0.889249
10:21:57,30-Sep-21,0.948,0.943,0.898704,0.889249
10:21:57,30-Sep-21,0.958,0.943,0.917764,0.889249
10:21:57,30-Sep-21,0.958,0.944,0.917764,0.891136
10:21:57,30-Sep-21,0.958,0.944,0.917764,0.891136
10:21:57,30-Sep-21,0.958,0.944,0.917764,0.891136
10:21:57,30-Sep-21,0.958,0.944,0.917764,0.891136
10:21:57,30-Sep-21,0.958,0.944,0.917764,0.891136
10:21:57,30-Sep-21,0.953,0.944,0.908209,0.891136
10:21:57,30-Sep-21,0.953,0.944,0.908209,0.891136
10:21:57,30-Sep-21,0.953,0.944,0.908209,0.891136
10:21:57,30-Sep-21,0.9385,0.944,0.88078225,0.891136
10:21:57,30-Sep-21,0.9335,0.944,0.87142225,0.891136
10:21:57,30-Sep-21,0.9335,0.944,0.87142225,0.891136
10:21:57,30-Sep-21,0.9335,0.944,0.87142225,0.891136
10:21:57,30-Sep-21,0.919,0.944,0.844561,0.891136
10:21:57,30-Sep-21,0.919,0.944,0.844561,0.891136
10:21:57,30-Sep-21,0.914,0.944,0.835396,0.891136
10:21:57,30-Sep-21,0.914,0.944,0.835396,0.891136
10:21:57,30-Sep-21,0.924,0.944,0.853776,0.891136
10:21:57,30-Sep-21,0.9435,0.944,0.89019225,0.891136
10:21:57,30-Sep-21,0.9435,0.944,0.89019225,0.891136
10:21:57,30-Sep-21,0.963,0.944,0.927369,0.891136
10:21:57,30-Sep-21,0.963,0.944,0.927369,0.891136
10:21:57,30-Sep-21,0.9675,0.944,0.93605625,0.891136
10:21:57,30-Sep-21,0.9675,0.944,0.93605625,0.891136
10:21:57,30-Sep-21,0.9675,0.944,0.93605625,0.891136
10:21:57,30-Sep-21,0.9675,0.944,0.93605625,0.891136
10:21:57,30-Sep-21,0.958,0.944,0.917764,0.891136
10:21:57,30-Sep-21,0.953,0.944,0.908209,0.891136
10:21:57,30-Sep-21,0.953,0.944,0.908209,0.891136
10:21:57,30-Sep-21,0.9385,0.943,0.88078225,0.889249
10:21:57,30-Sep-21,0.9385,0.943,0.88078225,0.889249
10:21:57,30-Sep-21,0.9385,0.943,0.88078225,0.889249
10:21:57,30-Sep-21,0.9335,0.943,0.87142225,0.889249
10:21:57,30-Sep-21,0.9335,0.943,0.87142225,0.889249
10:21:57,30-Sep-21,0.924,0.943,0.853776,0.889249
10:21:57,30-Sep-21,0.924,0.943,0.853776,0.889249
10:21:57,30-Sep-21,0.924,0.943,0.853776,0.889249
10:21:57,30-Sep-21,0.924,0.943,0.853776,0.889249
10:21:57,30-Sep-21,0.9385,0.943,0.88078225,0.889249
10:21:57,30-Sep-21,0.9385,0.943,0.88078225,0.889249
10:21:57,30-Sep-21,0.9385,0.943,0.88078225,0.889249
10:21:57,30-Sep-21,0.948,0.944,0.898704,0.891136
10:21:57,30-Sep-21,0.948,0.944,0.898704,0.891136
10:21:57,30-Sep-21,0.953,0.944,0.908209,0.891136
10:21:57,30-Sep-21,0.958,0.944,0.917764,0.891136
10:21:57,30-Sep-21,0.958,0.944,0.917764,0.891136
10:21:57,30-Sep-21,0.953,0.944,0.908209,0.891136
10:21:57,30-Sep-21,0.9435,0.944,0.89019225,0.891136
10:21:57,30-Sep-21,0.9435,0.944,0.89019225,0.891136
10:21:57,30-Sep-21,0.9385,0.944,0.88078225,0.891136
10:21:57,30-Sep-21,0.9285,0.944,0.86211225,0.891136
10:21:57,30-Sep-21,0.9335,0.944,0.87142225,0.891136
10:21:57,30-Sep-21,0.9335,0.944,0.87142225,0.891136
10:21:57,30-Sep-21,0.9385,0.944,0.88078225,0.891136
10:21:57,30-Sep-21,0.9385,0.944,0.88078225,0.891136
10:21:58,30-Sep-21,0.953,0.944,0.908209,0.891136
10:21:58,30-Sep-21,0.963,0.944,0.927369,0.891136
10:21:58,30-Sep-21,0.963,0.944,0.927369,0.891136
10:21:58,30-Sep-21,0.963,0.944,0.927369,0.891136
10:21:58,30-Sep-21,0.963,0.944,0.927369,0.891136
10:21:58,30-Sep-21,0.963,0.943,0.927369,0.889249
10:21:58,30-Sep-21,0.958,0.943,0.917764,0.889249
10:21:58,30-Sep-21,0.958,0.943,0.917764,0.889249
10:21:58,30-Sep-21,0.948,0.943,0.898704,0.889249
10:21:58,30-Sep-21,0.9335,0.942,0.87142225,0.887364
10:21:58,30-Sep-21,0.9335,0.942,0.87142225,0.887364
10:21:58,30-Sep-21,0.9285,0.942,0.86211225,0.887364
10:21:58,30-Sep-21,0.919,0.941,0.844561,0.885481
10:21:58,30-Sep-21,0.919,0.941,0.844561,0.885481
10:21:58,30-Sep-21,0.919,0.941,0.844561,0.885481
10:21:58,30-Sep-21,0.919,0.94,0.844561,0.8836
10:21:58,30-Sep-21,0.919,0.94,0.844561,0.8836
10:21:58,30-Sep-21,0.919,0.94,0.844561,0.8836
10:21:58,30-Sep-21,0.9435,0.94,0.89019225,0.8836
10:21:58,30-Sep-21,0.948,0.939,0.898704,0.881721
10:21:58,30-Sep-21,0.948,0.939,0.898704,0.881721
10:21:58,30-Sep-21,0.958,0.939,0.917764,0.881721
10:21:58,30-Sep-21,0.958,0.939,0.917764,0.881721
10:21:58,30-Sep-21,0.958,0.939,0.917764,0.881721
10:21:58,30-Sep-21,0.948,0.938,0.898704,0.879844
10:21:58,30-Sep-21,0.948,0.938,0.898704,0.879844
10:21:58,30-Sep-21,0.9435,0.938,0.89019225,0.879844
10:21:58,30-Sep-21,0.9435,0.938,0.89019225,0.879844
10:21:58,30-Sep-21,0.9335,0.938,0.87142225,0.879844
10:21:58,30-Sep-21,0.9335,0.938,0.87142225,0.879844
10:21:58,30-Sep-21,0.9285,0.937,0.86211225,0.877969
10:21:58,30-Sep-21,0.9285,0.937,0.86211225,0.877969
10:21:58,30-Sep-21,0.9285,0.937,0.86211225,0.877969
10:21:58,30-Sep-21,0.9285,0.937,0.86211225,0.877969
10:21:58,30-Sep-21,0.9285,0.937,0.86211225,0.877969
10:21:58,30-Sep-21,0.9285,0.937,0.86211225,0.877969
10:21:58,30-Sep-21,0.9335,0.937,0.87142225,0.877969
10:21:58,30-Sep-21,0.948,0.937,0.898704,0.877969
10:21:58,30-Sep-21,0.948,0.937,0.898704,0.877969
10:21:58,30-Sep-21,0.948,0.937,0.898704,0.877969
10:21:58,30-Sep-21,0.948,0.937,0.898704,0.877969
10:21:58,30-Sep-21,0.948,0.937,0.898704,0.877969
10:21:58,30-Sep-21,0.948,0.937,0.898704,0.877969
10:21:58,30-Sep-21,0.9335,0.937,0.87142225,0.877969
10:21:58,30-Sep-21,0.9285,0.937,0.86211225,0.877969
10:21:58,30-Sep-21,0.9285,0.937,0.86211225,0.877969
10:21:58,30-Sep-21,0.924,0.937,0.853776,0.877969
10:21:58,30-Sep-21,0.924,0.938,0.853776,0.879844
10:21:58,30-Sep-21,0.919,0.938,0.844561,0.879844
10:21:58,30-Sep-21,0.919,0.938,0.844561,0.879844
10:21:58,30-Sep-21,0.914,0.938,0.835396,0.879844
10:21:58,30-Sep-21,0.9385,0.938,0.88078225,0.879844
10:21:58,30-Sep-21,0.948,0.938,0.898704,0.879844
10:21:58,30-Sep-21,0.953,0.938,0.908209,0.879844
10:21:58,30-Sep-21,0.953,0.938,0.908209,0.879844
10:21:58,30-Sep-21,0.953,0.938,0.908209,0.879844
10:21:58,30-Sep-21,0.953,0.938,0.908209,0.879844
10:21:58,30-Sep-21,0.948,0.938,0.898704,0.879844
10:21:58,30-Sep-21,0.948,0.938,0.898704,0.879844
10:21:58,30-Sep-21,0.948,0.938,0.898704,0.879844
10:21:58,30-Sep-21,0.948,0.938,0.898704,0.879844
10:21:58,30-Sep-21,0.9335,0.938,0.87142225,0.879844
10:21:58,30-Sep-21,0.9335,0.938,0.87142225,0.879844
10:21:58,30-Sep-21,0.9285,0.937,0.86211225,0.877969
10:21:58,30-Sep-21,0.9285,0.937,0.86211225,0.877969
10:21:58,30-Sep-21,0.9285,0.937,0.86211225,0.877969
10:21:58,30-Sep-21,0.9285,0.937,0.86211225,0.877969
10:21:58,30-Sep-21,0.9435,0.937,0.89019225,0.877969
10:21:58,30-Sep-21,0.9435,0.936,0.89019225,0.876096
10:21:58,30-Sep-21,0.9435,0.936,0.89019225,0.876096
10:21:58,30-Sep-21,0.9435,0.936,0.89019225,0.876096
10:21:58,30-Sep-21,0.9435,0.936,0.89019225,0.876096
10:21:58,30-Sep-21,0.9435,0.935,0.89019225,0.874225
10:21:58,30-Sep-21,0.9435,0.935,0.89019225,0.874225
10:21:58,30-Sep-21,0.9435,0.935,0.89019225,0.874225
10:21:58,30-Sep-21,0.9285,0.935,0.86211225,0.874225
10:21:58,30-Sep-21,0.9285,0.935,0.86211225,0.874225
10:21:58,30-Sep-21,0.924,0.935,0.853776,0.874225
10:21:58,30-Sep-21,0.924,0.935,0.853776,0.874225
10:21:58,30-Sep-21,0.914,0.934,0.835396,0.872356
10:21:58,30-Sep-21,0.914,0.934,0.835396,0.872356
10:21:58,30-Sep-21,0.914,0.934,0.835396,0.872356
10:21:58,30-Sep-21,0.914,0.934,0.835396,0.872356
10:21:58,30-Sep-21,0.9335,0.934,0.87142225,0.872356
10:21:58,30-Sep-21,0.9335,0.934,0.87142225,0.872356
10:21:58,30-Sep-21,0.9335,0.934,0.87142225,0.872356
10:21:58,30-Sep-21,0.9335,0.934,0.87142225,0.872356
10:21:58,30-Sep-21,0.9335,0.934,0.87142225,0.872356
10:21:58,30-Sep-21,0.9385,0.934,0.88078225,0.872356
10:21:58,30-Sep-21,0.9385,0.934,0.88078225,0.872356
10:21:58,30-Sep-21,0.9385,0.934,0.88078225,0.872356
10:21:58,30-Sep-21,0.9435,0.934,0.89019225,0.872356
10:21:58,30-Sep-21,0.9435,0.934,0.89019225,0.872356
10:21:59,30-Sep-21,0.9435,0.934,0.89019225,0.872356
10:21:59,30-Sep-21,0.9435,0.934,0.89019225,0.872356
10:21:59,30-Sep-21,0.9435,0.934,0.89019225,0.872356
10:21:59,30-Sep-21,0.9435,0.933,0.89019225,0.870489
10:21:59,30-Sep-21,0.9435,0.933,0.89019225,0.870489
10:21:59,30-Sep-21,0.9435,0.933,0.89019225,0.870489
10:21:59,30-Sep-21,0.9385,0.932,0.88078225,0.868624
10:21:59,30-Sep-21,0.9385,0.932,0.88078225,0.868624
10:21:59,30-Sep-21,0.9385,0.931,0.88078225,0.866761
10:21:59,30-Sep-21,0.9385,0.931,0.88078225,0.866761
10:21:59,30-Sep-21,0.9385,0.93,0.88078225,0.8649
10:21:59,30-Sep-21,0.9285,0.929,0.86211225,0.863041
10:21:59,30-Sep-21,0.914,0.929,0.835396,0.863041
10:21:59,30-Sep-21,0.914,0.928,0.835396,0.861184
10:21:59,30-Sep-21,0.909,0.927,0.826281,0.859329
10:21:59,30-Sep-21,0.909,0.927,0.826281,0.859329
10:21:59,30-Sep-21,0.909,0.926,0.826281,0.857476
10:21:59,30-Sep-21,0.914,0.925,0.835396,0.855625
10:21:59,30-Sep-21,0.914,0.925,0.835396,0.855625
10:21:59,30-Sep-21,0.914,0.924,0.835396,0.853776
10:21:59,30-Sep-21,0.9335,0.923,0.87142225,0.851929
10:21:59,30-Sep-21,0.9335,0.923,0.87142225,0.851929
10:21:59,30-Sep-21,0.9385,0.922,0.88078225,0.850084
10:21:59,30-Sep-21,0.9385,0.921,0.88078225,0.848241
10:21:59,30-Sep-21,0.9385,0.921,0.88078225,0.848241
10:21:59,30-Sep-21,0.9335,0.92,0.87142225,0.8464
10:21:59,30-Sep-21,0.9335,0.92,0.87142225,0.8464
10:21:59,30-Sep-21,0.9335,0.919,0.87142225,0.844561
10:21:59,30-Sep-21,0.9285,0.919,0.86211225,0.844561
10:21:59,30-Sep-21,0.9285,0.918,0.86211225,0.842724
10:21:59,30-Sep-21,0.909,0.918,0.826281,0.842724
10:21:59,30-Sep-21,0.904,0.918,0.817216,0.842724
10:21:59,30-Sep-21,0.904,0.918,0.817216,0.842724
10:21:59,30-Sep-21,0.8995,0.918,0.80910025,0.842724
10:21:59,30-Sep-21,0.8995,0.918,0.80910025,0.842724
10:21:59,30-Sep-21,0.8995,0.918,0.80910025,0.842724
10:21:59,30-Sep-21,0.8995,0.918,0.80910025,0.842724
10:21:59,30-Sep-21,0.8995,0.918,0.80910025,0.842724
10:21:59,30-Sep-21,0.909,0.918,0.826281,0.842724
10:21:59,30-Sep-21,0.909,0.918,0.826281,0.842724
10:21:59,30-Sep-21,0.919,0.919,0.844561,0.844561
10:21:59,30-Sep-21,0.919,0.919,0.844561,0.844561
10:21:59,30-Sep-21,0.919,0.92,0.844561,0.8464
10:21:59,30-Sep-21,0.9285,0.92,0.86211225,0.8464
10:21:59,30-Sep-21,0.9285,0.921,0.86211225,0.848241
10:21:59,30-Sep-21,0.9335,0.921,0.87142225,0.848241
10:21:59,30-Sep-21,0.9335,0.922,0.87142225,0.850084
10:21:59,30-Sep-21,0.9335,0.922,0.87142225,0.850084
10:21:59,30-Sep-21,0.9335,0.923,0.87142225,0.851929
10:21:59,30-Sep-21,0.9385,0.924,0.88078225,0.853776
10:21:59,30-Sep-21,0.9385,0.924,0.88078225,0.853776
10:21:59,30-Sep-21,0.9285,0.925,0.86211225,0.855625
10:21:59,30-Sep-21,0.9285,0.925,0.86211225,0.855625
10:21:59,30-Sep-21,0.9285,0.926,0.86211225,0.857476
10:21:59,30-Sep-21,0.9285,0.926,0.86211225,0.857476
10:21:59,30-Sep-21,0.914,0.927,0.835396,0.859329
10:21:59,30-Sep-21,0.914,0.927,0.835396,0.859329
10:21:59,30-Sep-21,0.914,0.928,0.835396,0.861184
10:21:59,30-Sep-21,0.914,0.928,0.835396,0.861184
10:21:59,30-Sep-21,0.914,0.928,0.835396,0.861184
10:21:59,30-Sep-21,0.914,0.929,0.835396,0.863041
10:21:59,30-Sep-21,0.914,0.929,0.835396,0.863041
10:21:59,30-Sep-21,0.919,0.929,0.844561,0.863041
10:21:59,30-Sep-21,0.919,0.929,0.844561,0.863041
10:21:59,30-Sep-21,0.9385,0.929,0.88078225,0.863041
10:21:59,30-Sep-21,0.9435,0.929,0.89019225,0.863041
10:21:59,30-Sep-21,0.9435,0.929,0.89019225,0.863041
10:21:59,30-Sep-21,0.948,0.929,0.898704,0.863041
10:21:59,30-Sep-21,0.948,0.928,0.898704,0.861184
10:21:59,30-Sep-21,0.948,0.928,0.898704,0.861184
10:21:59,30-Sep-21,0.9435,0.927,0.89019225,0.859329
10:21:59,30-Sep-21,0.9435,0.927,0.89019225,0.859329
10:21:59,30-Sep-21,0.9435,0.926,0.89019225,0.857476
10:21:59,30-Sep-21,0.9285,0.925,0.86211225,0.855625
10:21:59,30-Sep-21,0.924,0.925,0.853776,0.855625
10:21:59,30-Sep-21,0.924,0.924,0.853776,0.853776
10:21:59,30-Sep-21,0.914,0.923,0.835396,0.851929
10:21:59,30-Sep-21,0.914,0.922,0.835396,0.850084
10:21:59,30-Sep-21,0.914,0.921,0.835396,0.848241
10:21:59,30-Sep-21,0.909,0.92,0.826281,0.8464
10:21:59,30-Sep-21,0.909,0.919,0.826281,0.844561
10:21:59,30-Sep-21,0.909,0.918,0.826281,0.842724
10:21:59,30-Sep-21,0.909,0.916,0.826281,0.839056
10:21:59,30-Sep-21,0.909,0.915,0.826281,0.837225
10:21:59,30-Sep-21,0.909,0.914,0.826281,0.835396
10:21:59,30-Sep-21,0.909,0.913,0.826281,0.833569
10:21:59,30-Sep-21,0.909,0.912,0.826281,0.831744
10:21:59,30-Sep-21,0.914,0.911,0.835396,0.829921
10:21:59,30-Sep-21,0.914,0.91,0.835396,0.8281
10:21:59,30-Sep-21,0.904,0.909,0.817216,0.826281
10:21:59,30-Sep-21,0.904,0.907,0.817216,0.822649
10:21:59,30-Sep-21,0.904,0.906,0.817216,0.820836
10:21:59,30-Sep-21,0.904,0.905,0.817216,0.819025
10:21:59,30-Sep-21,0.904,0.904,0.817216,0.817216
10:21:59,30-Sep-21,0.904,0.903,0.817216,0.815409
10:21:59,30-Sep-21,0.8895,0.902,0.79121025,0.813604
10:21:59,30-Sep-21,0.8895,0.901,0.79121025,0.811801
10:21:59,30-Sep-21,0.8845,0.9,0.78234025,0.81
10:21:59,30-Sep-21,0.8845,0.899,0.78234025,0.808201
10:21:59,30-Sep-21,0.8845,0.898,0.78234025,0.806404
10:21:59,30-Sep-21,0.8895,0.896,0.79121025,0.802816
10:21:59,30-Sep-21,0.8895,0.895,0.79121025,0.801025
10:21:59,30-Sep-21,0.8895,0.894,0.79121025,0.799236
10:21:59,30-Sep-21,0.914,0.893,0.835396,0.797449
10:21:59,30-Sep-21,0.914,0.892,0.835396,0.795664
10:21:59,30-Sep-21,0.919,0.89,0.844561,0.7921
10:21:59,30-Sep-21,0.919,0.889,0.844561,0.790321
10:22:00,30-Sep-21,0.914,0.888,0.835396,0.788544
10:22:00,30-Sep-21,0.914,0.886,0.835396,0.784996
10:22:00,30-Sep-21,0.8945,0.885,0.80013025,0.783225
10:22:00,30-Sep-21,0.8945,0.883,0.80013025,0.779689
10:22:00,30-Sep-21,0.88,0.882,0.7744,0.777924
10:22:00,30-Sep-21,0.875,0.88,0.765625,0.7744
10:22:00,30-Sep-21,0.865,0.879,0.748225,0.772641
10:22:00,30-Sep-21,0.865,0.877,0.748225,0.769129
10:22:00,30-Sep-21,0.87,0.876,0.7569,0.767376
10:22:00,30-Sep-21,0.87,0.874,0.7569,0.763876
10:22:00,30-Sep-21,0.87,0.873,0.7569,0.762129
10:22:00,30-Sep-21,0.88,0.871,0.7744,0.758641
10:22:00,30-Sep-21,0.875,0.87,0.765625,0.7569
10:22:00,30-Sep-21,0.865,0.868,0.748225,0.753424
10:22:00,30-Sep-21,0.865,0.867,0.748225,0.751689
10:22:00,30-Sep-21,0.8555,0.866,0.73188025,0.749956
10:22:00,30-Sep-21,0.8455,0.865,0.71487025,0.748225
10:22:00,30-Sep-21,0.8455,0.863,0.71487025,0.744769
10:22:00,30-Sep-21,0.8405,0.862,0.70644025,0.743044
10:22:00,30-Sep-21,0.836,0.861,0.698896,0.741321
10:22:00,30-Sep-21,0.836,0.86,0.698896,0.7396
10:22:00,30-Sep-21,0.8455,0.859,0.71487025,0.737881
10:22:00,30-Sep-21,0.8455,0.858,0.71487025,0.736164
10:22:00,30-Sep-21,0.865,0.857,0.748225,0.734449
10:22:00,30-Sep-21,0.87,0.857,0.7569,0.734449
10:22:00,30-Sep-21,0.875,0.856,0.765625,0.732736
10:22:00,30-Sep-21,0.875,0.855,0.765625,0.731025
10:22:00,30-Sep-21,0.875,0.854,0.765625,0.729316
10:22:00,30-Sep-21,0.87,0.854,0.7569,0.729316
10:22:00,30-Sep-21,0.86,0.853,0.7396,0.727609
10:22:00,30-Sep-21,0.8505,0.852,0.72335025,0.725904
10:22:00,30-Sep-21,0.8455,0.852,0.71487025,0.725904
10:22:00,30-Sep-21,0.836,0.851,0.698896,0.724201
10:22:00,30-Sep-21,0.836,0.85,0.698896,0.7225
10:22:00,30-Sep-21,0.831,0.849,0.690561,0.720801
10:22:00,30-Sep-21,0.8455,0.849,0.71487025,0.720801
10:22:00,30-Sep-21,0.8505,0.848,0.72335025,0.719104
10:22:00,30-Sep-21,0.86,0.848,0.7396,0.719104
10:22:00,30-Sep-21,0.86,0.847,0.7396,0.717409
10:22:00,30-Sep-21,0.86,0.846,0.7396,0.715716
10:22:00,30-Sep-21,0.865,0.846,0.748225,0.715716
10:22:00,30-Sep-21,0.86,0.845,0.7396,0.714025
10:22:00,30-Sep-21,0.8555,0.844,0.73188025,0.712336
10:22:00,30-Sep-21,0.8505,0.844,0.72335025,0.712336
10:22:00,30-Sep-21,0.8505,0.843,0.72335025,0.710649
10:22:00,30-Sep-21,0.8405,0.843,0.70644025,0.710649
10:22:00,30-Sep-21,0.836,0.842,0.698896,0.708964
10:22:00,30-Sep-21,0.831,0.842,0.690561,0.708964
10:22:00,30-Sep-21,0.831,0.842,0.690561,0.708964
10:22:00,30-Sep-21,0.831,0.842,0.690561,0.708964
10:22:00,30-Sep-21,0.8505,0.842,0.72335025,0.708964
10:22:00,30-Sep-21,0.8505,0.842,0.72335025,0.708964
10:22:00,30-Sep-21,0.8555,0.842,0.73188025,0.708964
10:22:00,30-Sep-21,0.86,0.843,0.7396,0.710649
10:22:00,30-Sep-21,0.86,0.843,0.7396,0.710649
10:22:00,30-Sep-21,0.86,0.844,0.7396,0.712336
10:22:00,30-Sep-21,0.86,0.845,0.7396,0.714025
10:22:00,30-Sep-21,0.8505,0.846,0.72335025,0.715716
10:22:00,30-Sep-21,0.8505,0.848,0.72335025,0.719104
10:22:00,30-Sep-21,0.8455,0.85,0.71487025,0.7225
10:22:00,30-Sep-21,0.8405,0.852,0.70644025,0.725904
10:22:00,30-Sep-21,0.836,0.854,0.698896,0.729316
10:22:00,30-Sep-21,0.8455,0.857,0.71487025,0.734449
10:22:00,30-Sep-21,0.8455,0.859,0.71487025,0.737881
10:22:00,30-Sep-21,0.8505,0.863,0.72335025,0.744769
10:22:00,30-Sep-21,0.865,0.866,0.748225,0.749956
10:22:00,30-Sep-21,0.865,0.87,0.748225,0.7569
10:22:00,30-Sep-21,0.87,0.874,0.7569,0.763876
10:22:00,30-Sep-21,0.87,0.879,0.7569,0.772641
10:22:00,30-Sep-21,0.87,0.884,0.7569,0.781456
10:22:00,30-Sep-21,0.87,0.889,0.7569,0.790321
10:22:00,30-Sep-21,0.875,0.894,0.765625,0.799236
10:22:01,30-Sep-21,0.875,0.9,0.765625,0.81
10:22:01,30-Sep-21,0.87,0.906,0.7569,0.820836
10:22:01,30-Sep-21,0.8845,0.912,0.78234025,0.831744
10:22:01,30-Sep-21,0.8995,0.919,0.80910025,0.844561
10:22:01,30-Sep-21,0.8995,0.925,0.80910025,0.855625
10:22:01,30-Sep-21,0.919,0.932,0.844561,0.868624
10:22:01,30-Sep-21,0.919,0.939,0.844561,0.881721
10:22:01,30-Sep-21,0.963,0.946,0.927369,0.894916
10:22:01,30-Sep-21,0.963,0.953,0.927369,0.908209
10:22:01,30-Sep-21,0.9875,0.96,0.97515625,0.9216
10:22:01,30-Sep-21,0.9875,0.967,0.97515625,0.935089
10:22:01,30-Sep-21,1.007,0.974,1.014049,0.948676
10:22:01,30-Sep-21,1.007,0.981,1.014049,0.962361
10:22:01,30-Sep-21,1.007,0.988,1.014049,0.976144
10:22:01,30-Sep-21,1.0215,0.995,1.04346225,0.990025
10:22:01,30-Sep-21,1.0215,1.001,1.04346225,1.002001
10:22:01,30-Sep-21,1.0315,1.008,1.06399225,1.016064
10:22:01,30-Sep-21,1.0315,1.014,1.06399225,1.028196
10:22:01,30-Sep-21,1.0315,1.02,1.06399225,1.0404
10:22:01,30-Sep-21,1.036,1.026,1.073296,1.052676
10:22:01,30-Sep-21,1.036,1.032,1.073296,1.065024
10:22:01,30-Sep-21,1.036,1.037,1.073296,1.075369
10:22:01,30-Sep-21,1.0315,1.042,1.06399225,1.085764
10:22:01,30-Sep-21,1.0315,1.047,1.06399225,1.096209
10:22:01,30-Sep-21,1.036,1.052,1.073296,1.106704
10:22:01,30-Sep-21,1.051,1.056,1.104601,1.115136
10:22:01,30-Sep-21,1.051,1.061,1.104601,1.125721
10:22:01,30-Sep-21,1.051,1.065,1.104601,1.134225
10:22:01,30-Sep-21,1.0655,1.068,1.13529025,1.140624
10:22:01,30-Sep-21,1.0655,1.072,1.13529025,1.149184
10:22:01,30-Sep-21,1.0655,1.075,1.13529025,1.155625
10:22:01,30-Sep-21,1.085,1.078,1.177225,1.162084
10:22:01,30-Sep-21,1.085,1.081,1.177225,1.168561
10:22:01,30-Sep-21,1.085,1.084,1.177225,1.175056
10:22:01,30-Sep-21,1.1045,1.086,1.21992025,1.179396
10:22:01,30-Sep-21,1.1045,1.088,1.21992025,1.183744
10:22:01,30-Sep-21,1.1095,1.09,1.23099025,1.1881
10:22:01,30-Sep-21,1.1045,1.092,1.21992025,1.192464
10:22:01,30-Sep-21,1.1045,1.093,1.21992025,1.194649
10:22:01,30-Sep-21,1.1045,1.094,1.21992025,1.196836
10:22:01,30-Sep-21,1.1045,1.095,1.21992025,1.199025
10:22:01,30-Sep-21,1.09,1.096,1.1881,1.201216
10:22:01,30-Sep-21,1.09,1.097,1.1881,1.203409
10:22:01,30-Sep-21,1.085,1.098,1.177225,1.205604
10:22:01,30-Sep-21,1.085,1.099,1.177225,1.207801
10:22:01,30-Sep-21,1.08,1.099,1.1664,1.207801
10:22:01,30-Sep-21,1.08,1.1,1.1664,1.21
10:22:01,30-Sep-21,1.08,1.1,1.1664,1.21
10:22:01,30-Sep-21,1.085,1.1,1.177225,1.21
10:22:01,30-Sep-21,1.085,1.101,1.177225,1.212201
10:22:01,30-Sep-21,1.085,1.101,1.177225,1.212201
10:22:01,30-Sep-21,1.1095,1.101,1.23099025,1.212201
10:22:01,30-Sep-21,1.1095,1.101,1.23099025,1.212201
10:22:01,30-Sep-21,1.1145,1.101,1.24211025,1.212201
10:22:01,30-Sep-21,1.1195,1.101,1.25328025,1.212201
10:22:01,30-Sep-21,1.1195,1.101,1.25328025,1.212201
10:22:01,30-Sep-21,1.1195,1.101,1.25328025,1.212201
10:22:01,30-Sep-21,1.1045,1.101,1.21992025,1.212201
10:22:01,30-Sep-21,1.1045,1.101,1.21992025,1.212201
10:22:01,30-Sep-21,1.0995,1.101,1.20890025,1.212201
10:22:01,30-Sep-21,1.085,1.101,1.177225,1.212201
10:22:01,30-Sep-21,1.085,1.101,1.177225,1.212201
10:22:01,30-Sep-21,1.085,1.101,1.177225,1.212201
10:22:01,30-Sep-21,1.085,1.101,1.177225,1.212201
10:22:01,30-Sep-21,1.095,1.101,1.199025,1.212201
10:22:01,30-Sep-21,1.095,1.101,1.199025,1.212201
10:22:01,30-Sep-21,1.095,1.101,1.199025,1.212201
10:22:01,30-Sep-21,1.1045,1.101,1.21992025,1.212201
10:22:01,30-Sep-21,1.1045,1.102,1.21992025,1.214404
10:22:01,30-Sep-21,1.124,1.102,1.263376,1.214404
10:22:01,30-Sep-21,1.124,1.102,1.263376,1.214404
10:22:01,30-Sep-21,1.124,1.102,1.263376,1.214404
10:22:01,30-Sep-21,1.1195,1.102,1.25328025,1.214404
10:22:01,30-Sep-21,1.1195,1.102,1.25328025,1.214404
10:22:01,30-Sep-21,1.1145,1.103,1.24211025,1.216609
10:22:01,30-Sep-21,1.1145,1.103,1.24211025,1.216609
10:22:01,30-Sep-21,1.0995,1.103,1.20890025,1.216609
10:22:01,30-Sep-21,1.095,1.103,1.199025,1.216609
10:22:01,30-Sep-21,1.095,1.104,1.199025,1.218816
10:22:01,30-Sep-21,1.08,1.104,1.1664,1.218816
10:22:01,30-Sep-21,1.08,1.104,1.1664,1.218816
10:22:01,30-Sep-21,1.08,1.104,1.1664,1.218816
10:22:01,30-Sep-21,1.085,1.105,1.177225,1.221025
10:22:01,30-Sep-21,1.085,1.105,1.177225,1.221025
10:22:01,30-Sep-21,1.085,1.105,1.177225,1.221025
10:22:01,30-Sep-21,1.1095,1.105,1.23099025,1.221025
10:22:01,30-Sep-21,1.1145,1.105,1.24211025,1.221025
10:22:01,30-Sep-21,1.1145,1.105,1.24211025,1.221025
10:22:01,30-Sep-21,1.1195,1.105,1.25328025,1.221025
10:22:01,30-Sep-21,1.1195,1.105,1.25328025,1.221025
10:22:01,30-Sep-21,1.1195,1.105,1.25328025,1.221025
10:22:01,30-Sep-21,1.1045,1.104,1.21992025,1.218816
10:22:01,30-Sep-21,1.0995,1.104,1.20890025,1.218816
10:22:01,30-Sep-21,1.08,1.103,1.1664,1.216609
10:22:01,30-Sep-21,1.08,1.102,1.1664,1.214404
10:22:01,30-Sep-21,1.08,1.101,1.1664,1.212201
10:22:02,30-Sep-21,1.0755,1.1,1.15670025,1.21
10:22:02,30-Sep-21,1.0755,1.098,1.15670025,1.205604
10:22:02,30-Sep-21,1.08,1.096,1.1664,1.201216
10:22:02,30-Sep-21,1.085,1.094,1.177225,1.196836
10:22:02,30-Sep-21,1.085,1.091,1.177225,1.190281
10:22:02,30-Sep-21,1.085,1.089,1.177225,1.185921
10:22:02,30-Sep-21,1.1045,1.086,1.21992025,1.179396
10:22:02,30-Sep-21,1.1045,1.082,1.21992025,1.170724
10:22:02,30-Sep-21,1.0995,1.078,1.20890025,1.162084
10:22:02,30-Sep-21,1.095,1.074,1.199025,1.153476
10:22:02,30-Sep-21,1.095,1.07,1.199025,1.1449
10:22:02,30-Sep-21,1.095,1.065,1.199025,1.134225
10:22:02,30-Sep-21,1.0755,1.059,1.15670025,1.121481
10:22:02,30-Sep-21,1.0655,1.054,1.13529025,1.110916
10:22:02,30-Sep-21,1.0555,1.048,1.11408025,1.098304
10:22:02,30-Sep-21,1.046,1.041,1.094116,1.083681
10:22:02,30-Sep-21,1.046,1.035,1.094116,1.071225
10:22:02,30-Sep-21,1.041,1.028,1.083681,1.056784
10:22:02,30-Sep-21,1.0555,1.02,1.11408025,1.0404
10:22:02,30-Sep-21,1.0555,1.013,1.11408025,1.026169
10:22:02,30-Sep-21,1.0555,1.005,1.11408025,1.010025
10:22:02,30-Sep-21,1.046,0.997,1.094116,0.994009
10:22:02,30-Sep-21,1.007,0.989,1.014049,0.978121
10:22:02,30-Sep-21,0.9725,0.981,0.94575625,0.962361
10:22:02,30-Sep-21,0.9725,0.973,0.94575625,0.946729
10:22:02,30-Sep-21,0.9725,0.965,0.94575625,0.931225
10:22:02,30-Sep-21,0.948,0.957,0.898704,0.915849
10:22:02,30-Sep-21,0.924,0.949,0.853776,0.900601
10:22:02,30-Sep-21,0.8995,0.941,0.80910025,0.885481
10:22:02,30-Sep-21,0.8995,0.933,0.80910025,0.870489
10:22:02,30-Sep-21,0.88,0.925,0.7744,0.855625
10:22:02,30-Sep-21,0.87,0.918,0.7569,0.842724
10:22:02,30-Sep-21,0.87,0.911,0.7569,0.829921
10:22:02,30-Sep-21,0.87,0.904,0.7569,0.817216
10:22:02,30-Sep-21,0.88,0.897,0.7744,0.804609
10:22:02,30-Sep-21,0.875,0.891,0.765625,0.793881
10:22:02,30-Sep-21,0.875,0.885,0.765625,0.783225
10:22:02,30-Sep-21,0.875,0.879,0.765625,0.772641
10:22:02,30-Sep-21,0.875,0.874,0.765625,0.763876
10:22:02,30-Sep-21,0.87,0.869,0.7569,0.755161
10:22:02,30-Sep-21,0.87,0.865,0.7569,0.748225
10:22:02,30-Sep-21,0.865,0.861,0.748225,0.741321
10:22:02,30-Sep-21,0.8555,0.857,0.73188025,0.734449
10:22:02,30-Sep-21,0.8555,0.853,0.73188025,0.727609
10:22:02,30-Sep-21,0.8455,0.85,0.71487025,0.7225
10:22:02,30-Sep-21,0.8455,0.847,0.71487025,0.717409
10:22:02,30-Sep-21,0.8455,0.845,0.71487025,0.714025
10:22:02,30-Sep-21,0.836,0.843,0.698896,0.710649
10:22:02,30-Sep-21,0.831,0.841,0.690561,0.707281
10:22:02,30-Sep-21,0.831,0.839,0.690561,0.703921
10:22:02,30-Sep-21,0.831,0.838,0.690561,0.702244
10:22:02,30-Sep-21,0.831,0.837,0.690561,0.700569
10:22:02,30-Sep-21,0.8455,0.836,0.71487025,0.698896
10:22:02,30-Sep-21,0.8455,0.835,0.71487025,0.697225
10:22:02,30-Sep-21,0.8505,0.835,0.72335025,0.697225
10:22:02,30-Sep-21,0.8505,0.834,0.72335025,0.695556
10:22:02,30-Sep-21,0.86,0.834,0.7396,0.695556
10:22:02,30-Sep-21,0.86,0.834,0.7396,0.695556
10:22:02,30-Sep-21,0.86,0.834,0.7396,0.695556
10:22:02,30-Sep-21,0.8555,0.834,0.73188025,0.695556
10:22:02,30-Sep-21,0.8555,0.834,0.73188025,0.695556
10:22:02,30-Sep-21,0.8555,0.835,0.73188025,0.697225
10:22:02,30-Sep-21,0.8405,0.835,0.70644025,0.697225
10:22:02,30-Sep-21,0.8405,0.836,0.70644025,0.698896
10:22:02,30-Sep-21,0.8405,0.836,0.70644025,0.698896
10:22:02,30-Sep-21,0.836,0.837,0.698896,0.700569
10:22:02,30-Sep-21,0.836,0.838,0.698896,0.702244
10:22:02,30-Sep-21,0.826,0.839,0.682276,0.703921
10:22:02,30-Sep-21,0.826,0.84,0.682276,0.7056
10:22:02,30-Sep-21,0.826,0.841,0.682276,0.707281
10:22:02,30-Sep-21,0.826,0.842,0.682276,0.708964
10:22:02,30-Sep-21,0.826,0.843,0.682276,0.710649
10:22:02,30-Sep-21,0.826,0.844,0.682276,0.712336
10:22:02,30-Sep-21,0.826,0.846,0.682276,0.715716
10:22:02,30-Sep-21,0.826,0.847,0.682276,0.717409
10:22:02,30-Sep-21,0.826,0.848,0.682276,0.719104
10:22:02,30-Sep-21,0.836,0.85,0.698896,0.7225
10:22:02,30-Sep-21,0.8555,0.851,0.73188025,0.724201
10:22:02,30-Sep-21,0.8555,0.853,0.73188025,0.727609
10:22:02,30-Sep-21,0.86,0.854,0.7396,0.729316
10:22:02,30-Sep-21,0.87,0.856,0.7569,0.732736
10:22:02,30-Sep-21,0.87,0.857,0.7569,0.734449
10:22:02,30-Sep-21,0.87,0.859,0.7569,0.737881
10:22:02,30-Sep-21,0.87,0.86,0.7569,0.7396
10:22:02,30-Sep-21,0.87,0.861,0.7569,0.741321
10:22:02,30-Sep-21,0.87,0.863,0.7569,0.744769
10:22:02,30-Sep-21,0.865,0.864,0.748225,0.746496
10:22:02,30-Sep-21,0.86,0.865,0.7396,0.748225
10:22:02,30-Sep-21,0.8555,0.866,0.73188025,0.749956
10:22:02,30-Sep-21,0.8555,0.867,0.73188025,0.751689
10:22:02,30-Sep-21,0.8555,0.868,0.73188025,0.753424
10:22:03,30-Sep-21,0.86,0.869,0.7396,0.755161
10:22:03,30-Sep-21,0.875,0.87,0.765625,0.7569
10:22:03,30-Sep-21,0.88,0.87,0.7744,0.7569
10:22:03,30-Sep-21,0.8845,0.871,0.78234025,0.758641
10:22:03,30-Sep-21,0.8845,0.871,0.78234025,0.758641
10:22:03,30-Sep-21,0.8945,0.871,0.80013025,0.758641
10:22:03,30-Sep-21,0.8945,0.871,0.80013025,0.758641
10:22:03,30-Sep-21,0.8895,0.871,0.79121025,0.758641
10:22:03,30-Sep-21,0.8895,0.871,0.79121025,0.758641
10:22:03,30-Sep-21,0.88,0.871,0.7744,0.758641
10:22:03,30-Sep-21,0.87,0.871,0.7569,0.758641
10:22:03,30-Sep-21,0.86,0.87,0.7396,0.7569
10:22:03,30-Sep-21,0.86,0.87,0.7396,0.7569
10:22:03,30-Sep-21,0.8505,0.869,0.72335025,0.755161
10:22:03,30-Sep-21,0.8505,0.869,0.72335025,0.755161
10:22:03,30-Sep-21,0.8505,0.868,0.72335025,0.753424
10:22:03,30-Sep-21,0.8505,0.867,0.72335025,0.751689
10:22:03,30-Sep-21,0.8505,0.866,0.72335025,0.749956
10:22:03,30-Sep-21,0.8555,0.866,0.73188025,0.749956
10:22:03,30-Sep-21,0.875,0.865,0.765625,0.748225
10:22:03,30-Sep-21,0.875,0.864,0.765625,0.746496
10:22:03,30-Sep-21,0.875,0.863,0.765625,0.744769
10:22:03,30-Sep-21,0.875,0.862,0.765625,0.743044
10:22:03,30-Sep-21,0.875,0.861,0.765625,0.741321
10:22:03,30-Sep-21,0.865,0.86,0.748225,0.7396
10:22:03,30-Sep-21,0.8555,0.859,0.73188025,0.737881
10:22:03,30-Sep-21,0.8505,0.858,0.72335025,0.736164
10:22:03,30-Sep-21,0.8505,0.858,0.72335025,0.736164
10:22:03,30-Sep-21,0.8405,0.857,0.70644025,0.734449
10:22:03,30-Sep-21,0.8405,0.856,0.70644025,0.732736
10:22:03,30-Sep-21,0.8405,0.855,0.70644025,0.731025
10:22:03,30-Sep-21,0.8455,0.854,0.71487025,0.729316
10:22:03,30-Sep-21,0.8555,0.854,0.73188025,0.729316
10:22:03,30-Sep-21,0.8555,0.853,0.73188025,0.727609
10:22:03,30-Sep-21,0.8555,0.852,0.73188025,0.725904
10:22:03,30-Sep-21,0.86,0.852,0.7396,0.725904
10:22:03,30-Sep-21,0.87,0.851,0.7569,0.724201
10:22:03,30-Sep-21,0.865,0.85,0.748225,0.7225
10:22:03,30-Sep-21,0.86,0.85,0.7396,0.7225
10:22:03,30-Sep-21,0.86,0.85,0.7396,0.7225
10:22:03,30-Sep-21,0.8555,0.849,0.73188025,0.720801
10:22:03,30-Sep-21,0.8405,0.849,0.70644025,0.720801
10:22:03,30-Sep-21,0.8405,0.849,0.70644025,0.720801
10:22:03,30-Sep-21,0.8405,0.849,0.70644025,0.720801
10:22:03,30-Sep-21,0.8405,0.848,0.70644025,0.719104
10:22:03,30-Sep-21,0.836,0.848,0.698896,0.719104
10:22:03,30-Sep-21,0.836,0.848,0.698896,0.719104
10:22:03,30-Sep-21,0.8405,0.849,0.70644025,0.720801
10:22:03,30-Sep-21,0.86,0.849,0.7396,0.720801
10:22:03,30-Sep-21,0.86,0.849,0.7396,0.720801
10:22:03,30-Sep-21,0.865,0.849,0.748225,0.720801
10:22:03,30-Sep-21,0.865,0.85,0.748225,0.7225
10:22:03,30-Sep-21,0.865,0.85,0.748225,0.7225
10:22:03,30-Sep-21,0.86,0.851,0.7396,0.724201
10:22:03,30-Sep-21,0.8505,0.852,0.72335025,0.725904
10:22:03,30-Sep-21,0.8505,0.852,0.72335025,0.725904
10:22:03,30-Sep-21,0.8505,0.853,0.72335025,0.727609
10:22:03,30-Sep-21,0.8505,0.854,0.72335025,0.729316
10:22:03,30-Sep-21,0.8455,0.855,0.71487025,0.731025
10:22:03,30-Sep-21,0.836,0.856,0.698896,0.732736
10:22:03,30-Sep-21,0.836,0.858,0.698896,0.736164
10:22:03,30-Sep-21,0.836,0.859,0.698896,0.737881
10:22:03,30-Sep-21,0.836,0.86,0.698896,0.7396
10:22:03,30-Sep-21,0.8555,0.862,0.73188025,0.743044
10:22:03,30-Sep-21,0.8555,0.863,0.73188025,0.744769
10:22:03,30-Sep-21,0.8555,0.865,0.73188025,0.748225
10:22:03,30-Sep-21,0.88,0.867,0.7744,0.751689
10:22:03,30-Sep-21,0.88,0.868,0.7744,0.753424
10:22:03,30-Sep-21,0.8895,0.87,0.79121025,0.7569
10:22:03,30-Sep-21,0.8895,0.872,0.79121025,0.760384
10:22:03,30-Sep-21,0.8895,0.874,0.79121025,0.763876
10:22:03,30-Sep-21,0.8895,0.876,0.79121025,0.767376
10:22:03,30-Sep-21,0.8945,0.877,0.80013025,0.769129
10:22:03,30-Sep-21,0.8945,0.879,0.80013025,0.772641
10:22:03,30-Sep-21,0.8895,0.881,0.79121025,0.776161
10:22:03,30-Sep-21,0.88,0.883,0.7744,0.779689
10:22:03,30-Sep-21,0.88,0.885,0.7744,0.783225
10:22:03,30-Sep-21,0.88,0.887,0.7744,0.786769
10:22:03,30-Sep-21,0.88,0.889,0.7744,0.790321
10:22:03,30-Sep-21,0.88,0.891,0.7744,0.793881
10:22:03,30-Sep-21,0.8845,0.893,0.78234025,0.797449
10:22:03,30-Sep-21,0.8845,0.895,0.78234025,0.801025
10:22:03,30-Sep-21,0.8845,0.897,0.78234025,0.804609
10:22:03,30-Sep-21,0.904,0.899,0.817216,0.808201
10:22:04,30-Sep-21,0.914,0.901,0.835396,0.811801
10:22:04,30-Sep-21,0.914,0.903,0.835396,0.815409
10:22:04,30-Sep-21,0.919,0.905,0.844561,0.819025
10:22:04,30-Sep-21,0.919,0.907,0.844561,0.822649
10:22:04,30-Sep-21,0.919,0.909,0.844561,0.826281
10:22:04,30-Sep-21,0.914,0.911,0.835396,0.829921
10:22:04,30-Sep-21,0.914,0.913,0.835396,0.833569
10:22:04,30-Sep-21,0.914,0.915,0.835396,0.837225
10:22:04,30-Sep-21,0.909,0.917,0.826281,0.840889
10:22:04,30-Sep-21,0.909,0.919,0.826281,0.844561
10:22:04,30-Sep-21,0.8995,0.921,0.80910025,0.848241
10:22:04,30-Sep-21,0.8995,0.923,0.80910025,0.851929
10:22:04,30-Sep-21,0.8995,0.925,0.80910025,0.855625
10:22:04,30-Sep-21,0.909,0.927,0.826281,0.859329
10:22:04,30-Sep-21,0.924,0.929,0.853776,0.863041
10:22:04,30-Sep-21,0.9435,0.931,0.89019225,0.866761
10:22:04,30-Sep-21,0.9435,0.932,0.89019225,0.868624
10:22:04,30-Sep-21,0.9435,0.934,0.89019225,0.872356
10:22:04,30-Sep-21,0.948,0.936,0.898704,0.876096
10:22:04,30-Sep-21,0.948,0.938,0.898704,0.879844
10:22:04,30-Sep-21,0.9435,0.939,0.89019225,0.881721
10:22:04,30-Sep-21,0.9435,0.941,0.89019225,0.885481
10:22:04,30-Sep-21,0.9435,0.942,0.89019225,0.887364
10:22:04,30-Sep-21,0.9435,0.944,0.89019225,0.891136
10:22:04,30-Sep-21,0.9435,0.945,0.89019225,0.893025
10:22:04,30-Sep-21,0.9335,0.946,0.87142225,0.894916
10:22:04,30-Sep-21,0.9335,0.947,0.87142225,0.896809
10:22:04,30-Sep-21,0.9335,0.948,0.87142225,0.898704
10:22:04,30-Sep-21,0.9335,0.949,0.87142225,0.900601
10:22:04,30-Sep-21,0.9335,0.949,0.87142225,0.900601
10:22:04,30-Sep-21,0.9335,0.95,0.87142225,0.9025
10:22:04,30-Sep-21,0.9385,0.95,0.88078225,0.9025
10:22:04,30-Sep-21,0.963,0.95,0.927369,0.9025
10:22:04,30-Sep-21,0.963,0.95,0.927369,0.9025
10:22:04,30-Sep-21,0.9675,0.95,0.93605625,0.9025
10:22:04,30-Sep-21,0.9775,0.95,0.95550625,0.9025
10:22:04,30-Sep-21,0.9775,0.95,0.95550625,0.9025
10:22:04,30-Sep-21,0.9775,0.949,0.95550625,0.900601
10:22:04,30-Sep-21,0.9775,0.949,0.95550625,0.900601
10:22:04,30-Sep-21,0.9775,0.948,0.95550625,0.898704
10:22:04,30-Sep-21,0.9675,0.947,0.93605625,0.896809
10:22:04,30-Sep-21,0.948,0.946,0.898704,0.894916
10:22:04,30-Sep-21,0.948,0.944,0.898704,0.891136
10:22:04,30-Sep-21,0.948,0.943,0.898704,0.889249
10:22:04,30-Sep-21,0.9385,0.942,0.88078225,0.887364
10:22:04,30-Sep-21,0.924,0.94,0.853776,0.8836
10:22:04,30-Sep-21,0.924,0.939,0.853776,0.881721
10:22:04,30-Sep-21,0.914,0.937,0.835396,0.877969
10:22:04,30-Sep-21,0.919,0.936,0.844561,0.876096
10:22:04,30-Sep-21,0.919,0.934,0.844561,0.872356
10:22:04,30-Sep-21,0.919,0.932,0.844561,0.868624
10:22:04,30-Sep-21,0.919,0.931,0.844561,0.866761
10:22:04,30-Sep-21,0.919,0.929,0.844561,0.863041
10:22:04,30-Sep-21,0.9285,0.928,0.86211225,0.861184
10:22:04,30-Sep-21,0.9285,0.926,0.86211225,0.857476
10:22:04,30-Sep-21,0.9285,0.925,0.86211225,0.855625
10:22:04,30-Sep-21,0.924,0.923,0.853776,0.851929
10:22:04,30-Sep-21,0.919,0.922,0.844561,0.850084
10:22:04,30-Sep-21,0.919,0.921,0.844561,0.848241
10:22:04,30-Sep-21,0.914,0.92,0.835396,0.8464
10:22:04,30-Sep-21,0.914,0.919,0.835396,0.844561
10:22:04,30-Sep-21,0.914,0.917,0.835396,0.840889
10:22:04,30-Sep-21,0.904,0.917,0.817216,0.840889
10:22:04,30-Sep-21,0.904,0.916,0.817216,0.839056
10:22:04,30-Sep-21,0.904,0.915,0.817216,0.837225
10:22:04,30-Sep-21,0.8995,0.914,0.80910025,0.835396
10:22:04,30-Sep-21,0.904,0.913,0.817216,0.833569
10:22:04,30-Sep-21,0.904,0.913,0.817216,0.833569
10:22:04,30-Sep-21,0.919,0.912,0.844561,0.831744
10:22:04,30-Sep-21,0.919,0.911,0.844561,0.829921
10:22:04,30-Sep-21,0.919,0.911,0.844561,0.829921
10:22:04,30-Sep-21,0.924,0.91,0.853776,0.8281
10:22:04,30-Sep-21,0.9285,0.91,0.86211225,0.8281
10:22:04,30-Sep-21,0.9285,0.91,0.86211225,0.8281
10:22:04,30-Sep-21,0.9285,0.909,0.86211225,0.826281
10:22:04,30-Sep-21,0.9285,0.909,0.86211225,0.826281
10:22:04,30-Sep-21,0.924,0.909,0.853776,0.826281
10:22:04,30-Sep-21,0.924,0.908,0.853776,0.824464
10:22:04,30-Sep-21,0.924,0.908,0.853776,0.824464
10:22:04,30-Sep-21,0.914,0.908,0.835396,0.824464
10:22:04,30-Sep-21,0.914,0.908,0.835396,0.824464
10:22:04,30-Sep-21,0.909,0.908,0.826281,0.824464
10:22:04,30-Sep-21,0.8945,0.908,0.80013025,0.824464
10:22:04,30-Sep-21,0.8945,0.908,0.80013025,0.824464
10:22:04,30-Sep-21,0.8895,0.908,0.79121025,0.824464
10:22:04,30-Sep-21,0.8945,0.909,0.80013025,0.826281
10:22:04,30-Sep-21,0.8945,0.909,0.80013025,0.826281
10:22:04,30-Sep-21,0.8995,0.91,0.80910025,0.8281
10:22:04,30-Sep-21,0.909,0.91,0.826281,0.8281
10:22:04,30-Sep-21,0.909,0.911,0.826281,0.829921
10:22:04,30-Sep-21,0.924,0.912,0.853776,0.831744
10:22:05,30-Sep-21,0.9285,0.912,0.86211225,0.831744
10:22:05,30-Sep-21,0.9285,0.913,0.86211225,0.833569
10:22:05,30-Sep-21,0.919,0.914,0.844561,0.835396
10:22:05,30-Sep-21,0.919,0.916,0.844561,0.839056
10:22:05,30-Sep-21,0.919,0.917,0.844561,0.840889
10:22:05,30-Sep-21,0.904,0.918,0.817216,0.842724
10:22:05,30-Sep-21,0.904,0.92,0.817216,0.8464
10:22:05,30-Sep-21,0.904,0.921,0.817216,0.848241
10:22:05,30-Sep-21,0.8995,0.923,0.80910025,0.851929
10:22:05,30-Sep-21,0.8995,0.925,0.80910025,0.855625
10:22:05,30-Sep-21,0.8995,0.926,0.80910025,0.857476
10:22:05,30-Sep-21,0.8995,0.928,0.80910025,0.861184
10:22:05,30-Sep-21,0.8995,0.93,0.80910025,0.8649
10:22:05,30-Sep-21,0.909,0.932,0.826281,0.868624
10:22:05,30-Sep-21,0.9385,0.933,0.88078225,0.870489
10:22:05,30-Sep-21,0.9385,0.935,0.88078225,0.874225
10:22:05,30-Sep-21,0.9385,0.937,0.88078225,0.877969
10:22:05,30-Sep-21,0.958,0.938,0.917764,0.879844
10:22:05,30-Sep-21,0.958,0.94,0.917764,0.8836
10:22:05,30-Sep-21,0.9775,0.942,0.95550625,0.887364
10:22:05,30-Sep-21,0.9775,0.943,0.95550625,0.889249
10:22:05,30-Sep-21,0.9825,0.944,0.96530625,0.891136
10:22:05,30-Sep-21,0.9725,0.945,0.94575625,0.893025
10:22:05,30-Sep-21,0.9725,0.946,0.94575625,0.894916
10:22:05,30-Sep-21,0.9725,0.947,0.94575625,0.896809
10:22:05,30-Sep-21,0.963,0.948,0.927369,0.898704
10:22:05,30-Sep-21,0.9435,0.949,0.89019225,0.900601
10:22:05,30-Sep-21,0.9435,0.949,0.89019225,0.900601
10:22:05,30-Sep-21,0.9335,0.949,0.87142225,0.900601
10:22:05,30-Sep-21,0.9335,0.95,0.87142225,0.9025
10:22:05,30-Sep-21,0.9385,0.95,0.88078225,0.9025
10:22:05,30-Sep-21,0.9385,0.95,0.88078225,0.9025
10:22:05,30-Sep-21,0.9385,0.95,0.88078225,0.9025
10:22:05,30-Sep-21,0.948,0.949,0.898704,0.900601
10:22:05,30-Sep-21,0.948,0.949,0.898704,0.900601
10:22:05,30-Sep-21,0.963,0.949,0.927369,0.900601
10:22:05,30-Sep-21,0.963,0.948,0.927369,0.898704
10:22:05,30-Sep-21,0.963,0.947,0.927369,0.896809
10:22:05,30-Sep-21,0.963,0.947,0.927369,0.896809
10:22:05,30-Sep-21,0.953,0.946,0.908209,0.894916
10:22:05,30-Sep-21,0.9335,0.945,0.87142225,0.893025
10:22:05,30-Sep-21,0.9285,0.945,0.86211225,0.893025
10:22:05,30-Sep-21,0.924,0.944,0.853776,0.891136
10:22:05,30-Sep-21,0.914,0.943,0.835396,0.889249
10:22:05,30-Sep-21,0.914,0.942,0.835396,0.887364
10:22:05,30-Sep-21,0.914,0.941,0.835396,0.885481
10:22:05,30-Sep-21,0.9435,0.94,0.89019225,0.8836
10:22:05,30-Sep-21,0.9435,0.939,0.89019225,0.881721
10:22:05,30-Sep-21,0.948,0.938,0.898704,0.879844
10:22:05,30-Sep-21,0.948,0.937,0.898704,0.877969
10:22:05,30-Sep-21,0.948,0.936,0.898704,0.876096
10:22:05,30-Sep-21,0.9385,0.934,0.88078225,0.872356
10:22:05,30-Sep-21,0.9285,0.933,0.86211225,0.870489
10:22:05,30-Sep-21,0.924,0.932,0.853776,0.868624
10:22:05,30-Sep-21,0.914,0.931,0.835396,0.866761
10:22:05,30-Sep-21,0.914,0.929,0.835396,0.863041
10:22:05,30-Sep-21,0.914,0.928,0.835396,0.861184
10:22:05,30-Sep-21,0.909,0.926,0.826281,0.857476
10:22:05,30-Sep-21,0.914,0.924,0.835396,0.853776
10:22:05,30-Sep-21,0.914,0.923,0.835396,0.851929
10:22:05,30-Sep-21,0.9285,0.921,0.86211225,0.848241
10:22:05,30-Sep-21,0.9285,0.919,0.86211225,0.844561
10:22:05,30-Sep-21,0.9285,0.917,0.86211225,0.840889
10:22:05,30-Sep-21,0.924,0.915,0.853776,0.837225
10:22:05,30-Sep-21,0.919,0.912,0.844561,0.831744
10:22:05,30-Sep-21,0.919,0.91,0.844561,0.8281
10:22:05,30-Sep-21,0.914,0.907,0.835396,0.822649
10:22:05,30-Sep-21,0.909,0.904,0.826281,0.817216
10:22:05,30-Sep-21,0.909,0.901,0.826281,0.811801
10:22:05,30-Sep-21,0.909,0.898,0.826281,0.806404
10:22:05,30-Sep-21,0.8945,0.895,0.80013025,0.801025
10:22:05,30-Sep-21,0.8945,0.891,0.80013025,0.793881
10:22:05,30-Sep-21,0.8895,0.887,0.79121025,0.786769
10:22:05,30-Sep-21,0.88,0.884,0.7744,0.781456
10:22:05,30-Sep-21,0.88,0.88,0.7744,0.7744
10:22:05,30-Sep-21,0.88,0.876,0.7744,0.767376
10:22:05,30-Sep-21,0.88,0.871,0.7744,0.758641
10:22:05,30-Sep-21,0.8945,0.867,0.80013025,0.751689
10:22:05,30-Sep-21,0.8945,0.863,0.80013025,0.744769
10:22:05,30-Sep-21,0.8945,0.858,0.80013025,0.736164
10:22:05,30-Sep-21,0.875,0.854,0.765625,0.729316
10:22:05,30-Sep-21,0.875,0.849,0.765625,0.720801
10:22:06,30-Sep-21,0.875,0.845,0.765625,0.714025
10:22:06,30-Sep-21,0.831,0.84,0.690561,0.7056
10:22:06,30-Sep-21,0.831,0.836,0.690561,0.698896
10:22:06,30-Sep-21,0.8115,0.831,0.65853225,0.690561
10:22:06,30-Sep-21,0.792,0.827,0.627264,0.683929
10:22:06,30-Sep-21,0.787,0.823,0.619369,0.677329
10:22:06,30-Sep-21,0.782,0.819,0.611524,0.670761
10:22:06,30-Sep-21,0.782,0.814,0.611524,0.662596
10:22:06,30-Sep-21,0.7965,0.811,0.63441225,0.657721
10:22:06,30-Sep-21,0.8015,0.807,0.64240225,0.651249
10:22:06,30-Sep-21,0.8015,0.803,0.64240225,0.644809
10:22:06,30-Sep-21,0.7965,0.8,0.63441225,0.64
10:22:06,30-Sep-21,0.7965,0.797,0.63441225,0.635209
10:22:06,30-Sep-21,0.792,0.794,0.627264,0.630436
10:22:06,30-Sep-21,0.787,0.791,0.619369,0.625681
10:22:06,30-Sep-21,0.772,0.788,0.595984,0.620944
10:22:06,30-Sep-21,0.7675,0.786,0.58905625,0.617796
10:22:06,30-Sep-21,0.7575,0.783,0.57380625,0.613089
10:22:06,30-Sep-21,0.7575,0.781,0.57380625,0.609961
10:22:06,30-Sep-21,0.7675,0.779,0.58905625,0.606841
10:22:06,30-Sep-21,0.777,0.777,0.603729,0.603729
10:22:06,30-Sep-21,0.782,0.775,0.611524,0.600625
10:22:06,30-Sep-21,0.782,0.774,0.611524,0.599076
10:22:06,30-Sep-21,0.782,0.772,0.611524,0.595984
10:22:06,30-Sep-21,0.792,0.771,0.627264,0.594441
10:22:06,30-Sep-21,0.792,0.769,0.627264,0.591361
10:22:06,30-Sep-21,0.787,0.768,0.619369,0.589824
10:22:06,30-Sep-21,0.782,0.767,0.611524,0.588289
10:22:06,30-Sep-21,0.7675,0.765,0.58905625,0.585225
10:22:06,30-Sep-21,0.7675,0.764,0.58905625,0.583696
10:22:06,30-Sep-21,0.7675,0.763,0.58905625,0.582169
10:22:06,30-Sep-21,0.7575,0.762,0.57380625,0.580644
10:22:06,30-Sep-21,0.7575,0.761,0.57380625,0.579121
10:22:06,30-Sep-21,0.7575,0.76,0.57380625,0.5776
10:22:06,30-Sep-21,0.772,0.758,0.595984,0.574564
10:22:06,30-Sep-21,0.772,0.757,0.595984,0.573049
10:22:06,30-Sep-21,0.772,0.756,0.595984,0.571536
10:22:06,30-Sep-21,0.7675,0.755,0.58905625,0.570025
10:22:06,30-Sep-21,0.7675,0.754,0.58905625,0.568516
10:22:06,30-Sep-21,0.7575,0.752,0.57380625,0.565504
10:22:06,30-Sep-21,0.7575,0.751,0.57380625,0.564001
10:22:06,30-Sep-21,0.743,0.75,0.552049,0.5625
10:22:06,30-Sep-21,0.738,0.749,0.544644,0.561001
10:22:06,30-Sep-21,0.738,0.748,0.544644,0.559504
10:22:06,30-Sep-21,0.7285,0.746,0.53071225,0.556516
10:22:06,30-Sep-21,0.7285,0.745,0.53071225,0.555025
10:22:06,30-Sep-21,0.733,0.744,0.537289,0.553536
10:22:06,30-Sep-21,0.733,0.743,0.537289,0.552049
10:22:06,30-Sep-21,0.738,0.741,0.544644,0.549081
10:22:06,30-Sep-21,0.738,0.74,0.544644,0.5476
10:22:06,30-Sep-21,0.743,0.739,0.552049,0.546121
10:22:06,30-Sep-21,0.7525,0.738,0.56625625,0.544644
10:22:06,30-Sep-21,0.748,0.737,0.559504,0.543169
10:22:06,30-Sep-21,0.748,0.736,0.559504,0.541696
10:22:06,30-Sep-21,0.743,0.735,0.552049,0.540225
10:22:06,30-Sep-21,0.743,0.734,0.552049,0.538756
10:22:06,30-Sep-21,0.743,0.733,0.552049,0.537289
10:22:06,30-Sep-21,0.738,0.732,0.544644,0.535824
10:22:06,30-Sep-21,0.7235,0.732,0.52345225,0.535824
10:22:06,30-Sep-21,0.7185,0.731,0.51624225,0.534361
10:22:06,30-Sep-21,0.7185,0.73,0.51624225,0.5329
10:22:06,30-Sep-21,0.7185,0.73,0.51624225,0.5329
10:22:06,30-Sep-21,0.7185,0.729,0.51624225,0.531441
10:22:06,30-Sep-21,0.7185,0.729,0.51624225,0.531441
10:22:06,30-Sep-21,0.7185,0.729,0.51624225,0.531441
10:22:06,30-Sep-21,0.7185,0.729,0.51624225,0.531441
10:22:06,30-Sep-21,0.7235,0.729,0.52345225,0.531441
10:22:06,30-Sep-21,0.738,0.728,0.544644,0.529984
10:22:06,30-Sep-21,0.738,0.729,0.544644,0.531441
10:22:06,30-Sep-21,0.738,0.729,0.544644,0.531441
10:22:06,30-Sep-21,0.738,0.729,0.544644,0.531441
10:22:06,30-Sep-21,0.738,0.729,0.544644,0.531441
10:22:06,30-Sep-21,0.743,0.73,0.552049,0.5329
10:22:06,30-Sep-21,0.738,0.73,0.544644,0.5329
10:22:06,30-Sep-21,0.7285,0.73,0.53071225,0.5329
10:22:07,30-Sep-21,0.7285,0.731,0.53071225,0.534361
10:22:07,30-Sep-21,0.7235,0.732,0.52345225,0.535824
10:22:07,30-Sep-21,0.7185,0.732,0.51624225,0.535824
10:22:07,30-Sep-21,0.7185,0.733,0.51624225,0.537289
10:22:07,30-Sep-21,0.7185,0.734,0.51624225,0.538756
10:22:07,30-Sep-21,0.7185,0.735,0.51624225,0.540225
10:22:07,30-Sep-21,0.733,0.736,0.537289,0.541696
10:22:07,30-Sep-21,0.738,0.737,0.544644,0.543169
10:22:07,30-Sep-21,0.7525,0.738,0.56625625,0.544644
10:22:07,30-Sep-21,0.7525,0.739,0.56625625,0.546121
10:22:07,30-Sep-21,0.7525,0.74,0.56625625,0.5476
10:22:07,30-Sep-21,0.748,0.741,0.559504,0.549081
10:22:07,30-Sep-21,0.748,0.742,0.559504,0.550564
10:22:07,30-Sep-21,0.748,0.743,0.559504,0.552049
10:22:07,30-Sep-21,0.748,0.744,0.559504,0.553536
10:22:07,30-Sep-21,0.743,0.745,0.552049,0.555025
10:22:07,30-Sep-21,0.743,0.746,0.552049,0.556516
10:22:07,30-Sep-21,0.738,0.747,0.544644,0.558009
10:22:07,30-Sep-21,0.738,0.748,0.544644,0.559504
10:22:07,30-Sep-21,0.738,0.749,0.544644,0.561001
10:22:07,30-Sep-21,0.738,0.75,0.544644,0.5625
10:22:07,30-Sep-21,0.743,0.751,0.552049,0.564001
10:22:07,30-Sep-21,0.743,0.752,0.552049,0.565504
10:22:07,30-Sep-21,0.7625,0.753,0.58140625,0.567009
10:22:07,30-Sep-21,0.7625,0.753,0.58140625,0.567009
10:22:07,30-Sep-21,0.7625,0.754,0.58140625,0.568516
10:22:07,30-Sep-21,0.7625,0.755,0.58140625,0.570025
10:22:07,30-Sep-21,0.7625,0.755,0.58140625,0.570025
10:22:07,30-Sep-21,0.7675,0.756,0.58905625,0.571536
10:22:07,30-Sep-21,0.7675,0.756,0.58905625,0.571536
10:22:07,30-Sep-21,0.7675,0.757,0.58905625,0.573049
10:22:07,30-Sep-21,0.7575,0.757,0.57380625,0.573049
10:22:07,30-Sep-21,0.7575,0.757,0.57380625,0.573049
10:22:07,30-Sep-21,0.7575,0.757,0.57380625,0.573049
10:22:07,30-Sep-21,0.7525,0.757,0.56625625,0.573049
10:22:07,30-Sep-21,0.7525,0.757,0.56625625,0.573049
10:22:07,30-Sep-21,0.743,0.757,0.552049,0.573049
10:22:07,30-Sep-21,0.743,0.757,0.552049,0.573049
10:22:07,30-Sep-21,0.743,0.757,0.552049,0.573049
10:22:07,30-Sep-21,0.748,0.757,0.559504,0.573049
10:22:07,30-Sep-21,0.748,0.756,0.559504,0.571536
10:22:07,30-Sep-21,0.7575,0.756,0.57380625,0.571536
10:22:07,30-Sep-21,0.7675,0.756,0.58905625,0.571536
10:22:07,30-Sep-21,0.772,0.755,0.595984,0.570025
10:22:07,30-Sep-21,0.772,0.755,0.595984,0.570025
10:22:07,30-Sep-21,0.772,0.754,0.595984,0.568516
10:22:07,30-Sep-21,0.7675,0.753,0.58905625,0.567009
10:22:07,30-Sep-21,0.7675,0.753,0.58905625,0.567009
10:22:07,30-Sep-21,0.7525,0.752,0.56625625,0.565504
10:22:07,30-Sep-21,0.743,0.751,0.552049,0.564001
10:22:07,30-Sep-21,0.743,0.751,0.552049,0.564001
10:22:07,30-Sep-21,0.738,0.75,0.544644,0.5625
10:22:07,30-Sep-21,0.738,0.749,0.544644,0.561001
10:22:07,30-Sep-21,0.7285,0.748,0.53071225,0.559504
10:22:07,30-Sep-21,0.7285,0.747,0.53071225,0.558009
10:22:07,30-Sep-21,0.743,0.747,0.552049,0.558009
10:22:07,30-Sep-21,0.748,0.746,0.559504,0.556516
10:22:07,30-Sep-21,0.748,0.745,0.559504,0.555025
10:22:07,30-Sep-21,0.748,0.744,0.559504,0.553536
10:22:07,30-Sep-21,0.748,0.744,0.559504,0.553536
10:22:07,30-Sep-21,0.748,0.743,0.559504,0.552049
10:22:07,30-Sep-21,0.748,0.742,0.559504,0.550564
10:22:07,30-Sep-21,0.748,0.741,0.559504,0.549081
10:22:07,30-Sep-21,0.748,0.741,0.559504,0.549081
10:22:07,30-Sep-21,0.738,0.74,0.544644,0.5476
10:22:07,30-Sep-21,0.738,0.739,0.544644,0.546121
10:22:07,30-Sep-21,0.733,0.739,0.537289,0.546121
10:22:07,30-Sep-21,0.733,0.738,0.537289,0.544644
10:22:07,30-Sep-21,0.7285,0.737,0.53071225,0.543169
10:22:07,30-Sep-21,0.7285,0.737,0.53071225,0.543169
10:22:07,30-Sep-21,0.7235,0.736,0.52345225,0.541696
10:22:07,30-Sep-21,0.7235,0.736,0.52345225,0.541696
10:22:07,30-Sep-21,0.7235,0.735,0.52345225,0.540225
10:22:07,30-Sep-21,0.733,0.735,0.537289,0.540225
10:22:07,30-Sep-21,0.733,0.734,0.537289,0.538756
10:22:07,30-Sep-21,0.733,0.734,0.537289,0.538756
10:22:07,30-Sep-21,0.748,0.733,0.559504,0.537289
10:22:07,30-Sep-21,0.748,0.733,0.559504,0.537289
10:22:07,30-Sep-21,0.748,0.732,0.559504,0.535824
10:22:07,30-Sep-21,0.748,0.732,0.559504,0.535824
10:22:07,30-Sep-21,0.743,0.731,0.552049,0.534361
10:22:07,30-Sep-21,0.743,0.731,0.552049,0.534361
10:22:07,30-Sep-21,0.743,0.73,0.552049,0.5329
10:22:07,30-Sep-21,0.743,0.73,0.552049,0.5329
10:22:07,30-Sep-21,0.7235,0.729,0.52345225,0.531441
10:22:07,30-Sep-21,0.7235,0.729,0.52345225,0.531441
10:22:07,30-Sep-21,0.7185,0.728,0.51624225,0.529984
10:22:08,30-Sep-21,0.7135,0.728,0.50908225,0.529984
