Time,Date,EMG Value (V),Filtered Value (V),,
10:14:03,30-Sep-21,0.777,0.77,0.603729,0.5929
10:14:03,30-Sep-21,0.7625,0.768,0.58140625,0.589824
10:14:03,30-Sep-21,0.7625,0.766,0.58140625,0.586756
10:14:03,30-Sep-21,0.7525,0.763,0.56625625,0.582169
10:14:03,30-Sep-21,0.738,0.761,0.544644,0.579121
10:14:03,30-Sep-21,0.738,0.759,0.544644,0.576081
10:14:03,30-Sep-21,0.733,0.756,0.537289,0.571536
10:14:03,30-Sep-21,0.733,0.754,0.537289,0.568516
10:14:03,30-Sep-21,0.738,0.752,0.544644,0.565504
10:14:03,30-Sep-21,0.738,0.75,0.544644,0.5625
10:14:03,30-Sep-21,0.738,0.748,0.544644,0.559504
10:14:03,30-Sep-21,0.7575,0.746,0.57380625,0.556516
10:14:03,30-Sep-21,0.7575,0.744,0.57380625,0.553536
10:14:03,30-Sep-21,0.733,0.743,0.537289,0.552049
10:14:03,30-Sep-21,0.733,0.741,0.537289,0.549081
10:14:03,30-Sep-21,0.733,0.74,0.537289,0.5476
10:14:03,30-Sep-21,0.782,0.739,0.611524,0.546121
10:14:03,30-Sep-21,0.782,0.738,0.611524,0.544644
10:14:03,30-Sep-21,0.782,0.738,0.611524,0.544644
10:14:03,30-Sep-21,0.782,0.737,0.611524,0.543169
10:14:03,30-Sep-21,0.782,0.737,0.611524,0.543169
10:14:03,30-Sep-21,0.7625,0.737,0.58140625,0.543169
10:14:03,30-Sep-21,0.7625,0.737,0.58140625,0.543169
10:14:03,30-Sep-21,0.7625,0.738,0.58140625,0.544644
10:14:03,30-Sep-21,0.699,0.739,0.488601,0.546121
10:14:03,30-Sep-21,0.699,0.74,0.488601,0.5476
10:14:03,30-Sep-21,0.699,0.741,0.488601,0.549081
10:14:03,30-Sep-21,0.699,0.743,0.488601,0.552049
10:14:03,30-Sep-21,0.699,0.745,0.488601,0.555025
10:14:03,30-Sep-21,0.699,0.747,0.488601,0.558009
10:14:03,30-Sep-21,0.694,0.75,0.481636,0.5625
10:14:03,30-Sep-21,0.694,0.753,0.481636,0.567009
10:14:03,30-Sep-21,0.694,0.756,0.481636,0.571536
10:14:03,30-Sep-21,0.748,0.76,0.559504,0.5776
10:14:03,30-Sep-21,0.748,0.763,0.559504,0.582169
10:14:03,30-Sep-21,0.748,0.767,0.559504,0.588289
10:14:03,30-Sep-21,0.748,0.771,0.559504,0.594441
10:14:03,30-Sep-21,0.748,0.776,0.559504,0.602176
10:14:03,30-Sep-21,0.748,0.781,0.559504,0.609961
10:14:03,30-Sep-21,0.7235,0.785,0.52345225,0.616225
10:14:03,30-Sep-21,0.7235,0.79,0.52345225,0.6241
10:14:03,30-Sep-21,0.7235,0.795,0.52345225,0.632025
10:14:03,30-Sep-21,0.7235,0.8,0.52345225,0.64
10:14:03,30-Sep-21,0.8015,0.806,0.64240225,0.649636
10:14:03,30-Sep-21,0.8015,0.811,0.64240225,0.657721
10:14:03,30-Sep-21,0.8405,0.816,0.70644025,0.665856
10:14:03,30-Sep-21,0.8405,0.822,0.70644025,0.675684
10:14:03,30-Sep-21,0.8405,0.827,0.70644025,0.683929
10:14:03,30-Sep-21,0.904,0.832,0.817216,0.692224
10:14:04,30-Sep-21,0.904,0.837,0.817216,0.700569
10:14:04,30-Sep-21,0.909,0.842,0.826281,0.708964
10:14:04,30-Sep-21,0.909,0.847,0.826281,0.717409
10:14:04,30-Sep-21,0.909,0.852,0.826281,0.725904
10:14:04,30-Sep-21,0.909,0.856,0.826281,0.732736
10:14:04,30-Sep-21,0.909,0.861,0.826281,0.741321
10:14:04,30-Sep-21,0.914,0.865,0.835396,0.748225
10:14:04,30-Sep-21,0.914,0.869,0.835396,0.755161
10:14:04,30-Sep-21,0.914,0.872,0.835396,0.760384
10:14:04,30-Sep-21,0.909,0.876,0.826281,0.767376
10:14:04,30-Sep-21,0.909,0.879,0.826281,0.772641
10:14:04,30-Sep-21,0.909,0.882,0.826281,0.777924
10:14:04,30-Sep-21,0.8945,0.884,0.80013025,0.781456
10:14:04,30-Sep-21,0.8945,0.886,0.80013025,0.784996
10:14:04,30-Sep-21,0.8945,0.888,0.80013025,0.788544
10:14:04,30-Sep-21,0.8945,0.89,0.80013025,0.7921
10:14:04,30-Sep-21,0.8845,0.891,0.78234025,0.793881
10:14:04,30-Sep-21,0.8845,0.893,0.78234025,0.797449
10:14:04,30-Sep-21,0.8845,0.893,0.78234025,0.797449
10:14:04,30-Sep-21,0.8845,0.894,0.78234025,0.799236
10:14:04,30-Sep-21,0.8845,0.894,0.78234025,0.799236
10:14:04,30-Sep-21,0.8845,0.894,0.78234025,0.799236
10:14:04,30-Sep-21,0.8845,0.894,0.78234025,0.799236
10:14:04,30-Sep-21,0.8845,0.894,0.78234025,0.799236
10:14:04,30-Sep-21,0.8845,0.893,0.78234025,0.797449
10:14:04,30-Sep-21,0.8845,0.892,0.78234025,0.795664
10:14:04,30-Sep-21,0.875,0.891,0.765625,0.793881
10:14:04,30-Sep-21,0.875,0.89,0.765625,0.7921
10:14:04,30-Sep-21,0.875,0.888,0.765625,0.788544
10:14:04,30-Sep-21,0.875,0.886,0.765625,0.784996
10:14:04,30-Sep-21,0.875,0.884,0.765625,0.781456
10:14:04,30-Sep-21,0.87,0.882,0.7569,0.777924
10:14:04,30-Sep-21,0.87,0.88,0.7569,0.7744
10:14:04,30-Sep-21,0.87,0.877,0.7569,0.769129
10:14:04,30-Sep-21,0.87,0.875,0.7569,0.765625
10:14:04,30-Sep-21,0.87,0.872,0.7569,0.760384
10:14:04,30-Sep-21,0.87,0.869,0.7569,0.755161
10:14:04,30-Sep-21,0.8505,0.866,0.72335025,0.749956
10:14:04,30-Sep-21,0.8505,0.863,0.72335025,0.744769
10:14:04,30-Sep-21,0.8505,0.86,0.72335025,0.7396
10:14:04,30-Sep-21,0.8505,0.856,0.72335025,0.732736
10:14:04,30-Sep-21,0.8505,0.853,0.72335025,0.727609
10:14:04,30-Sep-21,0.8505,0.849,0.72335025,0.720801
10:14:04,30-Sep-21,0.831,0.845,0.690561,0.714025
10:14:04,30-Sep-21,0.831,0.841,0.690561,0.707281
10:14:04,30-Sep-21,0.831,0.837,0.690561,0.700569
10:14:04,30-Sep-21,0.831,0.833,0.690561,0.693889
10:14:04,30-Sep-21,0.831,0.829,0.690561,0.687241
10:14:04,30-Sep-21,0.8115,0.825,0.65853225,0.680625
10:14:04,30-Sep-21,0.8115,0.821,0.65853225,0.674041
10:14:04,30-Sep-21,0.8115,0.816,0.65853225,0.665856
10:14:04,30-Sep-21,0.8115,0.812,0.65853225,0.659344
10:14:04,30-Sep-21,0.8115,0.807,0.65853225,0.651249
10:14:04,30-Sep-21,0.8115,0.802,0.65853225,0.643204
10:14:04,30-Sep-21,0.8115,0.798,0.65853225,0.636804
10:14:04,30-Sep-21,0.8115,0.793,0.65853225,0.628849
10:14:04,30-Sep-21,0.782,0.788,0.611524,0.620944
10:14:04,30-Sep-21,0.782,0.783,0.611524,0.613089
10:14:04,30-Sep-21,0.782,0.778,0.611524,0.605284
10:14:04,30-Sep-21,0.782,0.773,0.611524,0.597529
10:14:04,30-Sep-21,0.7575,0.767,0.57380625,0.588289
10:14:04,30-Sep-21,0.7575,0.762,0.57380625,0.580644
10:14:04,30-Sep-21,0.7575,0.757,0.57380625,0.573049
10:14:04,30-Sep-21,0.7575,0.751,0.57380625,0.564001
10:14:04,30-Sep-21,0.738,0.746,0.544644,0.556516
10:14:04,30-Sep-21,0.738,0.74,0.544644,0.5476
10:14:04,30-Sep-21,0.738,0.735,0.544644,0.540225
10:14:04,30-Sep-21,0.738,0.729,0.544644,0.531441
10:14:04,30-Sep-21,0.738,0.723,0.544644,0.522729
10:14:04,30-Sep-21,0.7135,0.718,0.50908225,0.515524
10:14:04,30-Sep-21,0.7135,0.712,0.50908225,0.506944
10:14:04,30-Sep-21,0.7135,0.706,0.50908225,0.498436
10:14:04,30-Sep-21,0.7135,0.7,0.50908225,0.49
10:14:04,30-Sep-21,0.7135,0.695,0.50908225,0.483025
10:14:04,30-Sep-21,0.7135,0.689,0.50908225,0.474721
10:14:04,30-Sep-21,0.694,0.683,0.481636,0.466489
10:14:04,30-Sep-21,0.694,0.677,0.481636,0.458329
10:14:04,30-Sep-21,0.694,0.671,0.481636,0.450241
10:14:04,30-Sep-21,0.6645,0.666,0.44156025,0.443556
10:14:04,30-Sep-21,0.6645,0.66,0.44156025,0.4356
10:14:04,30-Sep-21,0.6645,0.654,0.44156025,0.427716
10:14:04,30-Sep-21,0.6645,0.648,0.44156025,0.419904
10:14:04,30-Sep-21,0.6305,0.643,0.39753025,0.413449
10:14:04,30-Sep-21,0.6305,0.637,0.39753025,0.405769
10:14:04,30-Sep-21,0.6305,0.632,0.39753025,0.399424
10:14:04,30-Sep-21,0.606,0.626,0.367236,0.391876
10:14:04,30-Sep-21,0.606,0.621,0.367236,0.385641
10:14:04,30-Sep-21,0.606,0.616,0.367236,0.379456
10:14:04,30-Sep-21,0.606,0.61,0.367236,0.3721
10:14:04,30-Sep-21,0.5815,0.605,0.33814225,0.366025
10:14:04,30-Sep-21,0.5815,0.6,0.33814225,0.36
10:14:04,30-Sep-21,0.5815,0.595,0.33814225,0.354025
10:14:04,30-Sep-21,0.5815,0.591,0.33814225,0.349281
10:14:04,30-Sep-21,0.5815,0.586,0.33814225,0.343396
10:14:04,30-Sep-21,0.5815,0.582,0.33814225,0.338724
10:14:04,30-Sep-21,0.567,0.577,0.321489,0.332929
10:14:04,30-Sep-21,0.567,0.573,0.321489,0.328329
10:14:04,30-Sep-21,0.567,0.569,0.321489,0.323761
10:14:04,30-Sep-21,0.557,0.565,0.310249,0.319225
10:14:04,30-Sep-21,0.557,0.562,0.310249,0.315844
10:14:04,30-Sep-21,0.557,0.558,0.310249,0.311364
10:14:04,30-Sep-21,0.557,0.555,0.310249,0.308025
10:14:04,30-Sep-21,0.5475,0.551,0.29975625,0.303601
10:14:04,30-Sep-21,0.5475,0.548,0.29975625,0.300304
10:14:04,30-Sep-21,0.5475,0.545,0.29975625,0.297025
10:14:04,30-Sep-21,0.5475,0.542,0.29975625,0.293764
10:14:04,30-Sep-21,0.5375,0.54,0.28890625,0.2916
10:14:04,30-Sep-21,0.5375,0.537,0.28890625,0.288369
10:14:04,30-Sep-21,0.5375,0.535,0.28890625,0.286225
10:14:04,30-Sep-21,0.5375,0.532,0.28890625,0.283024
10:14:04,30-Sep-21,0.5375,0.53,0.28890625,0.2809
10:14:04,30-Sep-21,0.5375,0.528,0.28890625,0.278784
10:14:04,30-Sep-21,0.5375,0.526,0.28890625,0.276676
10:14:04,30-Sep-21,0.528,0.525,0.278784,0.275625
10:14:04,30-Sep-21,0.528,0.523,0.278784,0.273529
10:14:04,30-Sep-21,0.528,0.521,0.278784,0.271441
10:14:04,30-Sep-21,0.523,0.52,0.273529,0.2704
10:14:04,30-Sep-21,0.523,0.519,0.273529,0.269361
10:14:04,30-Sep-21,0.523,0.518,0.273529,0.268324
10:14:04,30-Sep-21,0.5085,0.517,0.25857225,0.267289
10:14:04,30-Sep-21,0.5085,0.516,0.25857225,0.266256
10:14:04,30-Sep-21,0.5085,0.515,0.25857225,0.265225
10:14:04,30-Sep-21,0.5085,0.514,0.25857225,0.264196
10:14:04,30-Sep-21,0.5085,0.514,0.25857225,0.264196
10:14:04,30-Sep-21,0.5085,0.513,0.25857225,0.263169
10:14:04,30-Sep-21,0.5085,0.513,0.25857225,0.263169
10:14:04,30-Sep-21,0.5035,0.512,0.25351225,0.262144
10:14:04,30-Sep-21,0.5035,0.512,0.25351225,0.262144
10:14:04,30-Sep-21,0.5035,0.512,0.25351225,0.262144
10:14:04,30-Sep-21,0.5035,0.512,0.25351225,0.262144
10:14:04,30-Sep-21,0.5035,0.512,0.25351225,0.262144
10:14:04,30-Sep-21,0.5085,0.512,0.25857225,0.262144
10:14:04,30-Sep-21,0.5085,0.512,0.25857225,0.262144
10:14:04,30-Sep-21,0.5085,0.512,0.25857225,0.262144
10:14:04,30-Sep-21,0.513,0.512,0.263169,0.262144
10:14:04,30-Sep-21,0.513,0.512,0.263169,0.262144
10:14:04,30-Sep-21,0.513,0.512,0.263169,0.262144
10:14:04,30-Sep-21,0.513,0.512,0.263169,0.262144
10:14:04,30-Sep-21,0.513,0.512,0.263169,0.262144
10:14:04,30-Sep-21,0.513,0.512,0.263169,0.262144
10:14:04,30-Sep-21,0.513,0.513,0.263169,0.263169
10:14:04,30-Sep-21,0.513,0.513,0.263169,0.263169
10:14:04,30-Sep-21,0.523,0.513,0.273529,0.263169
10:14:04,30-Sep-21,0.523,0.513,0.273529,0.263169
10:14:04,30-Sep-21,0.523,0.513,0.273529,0.263169
10:14:04,30-Sep-21,0.523,0.513,0.273529,0.263169
10:14:04,30-Sep-21,0.523,0.513,0.273529,0.263169
10:14:04,30-Sep-21,0.523,0.513,0.273529,0.263169
10:14:04,30-Sep-21,0.523,0.513,0.273529,0.263169
10:14:04,30-Sep-21,0.523,0.513,0.273529,0.263169
10:14:04,30-Sep-21,0.523,0.513,0.273529,0.263169
10:14:04,30-Sep-21,0.523,0.513,0.273529,0.263169
10:14:04,30-Sep-21,0.523,0.513,0.273529,0.263169
10:14:04,30-Sep-21,0.523,0.513,0.273529,0.263169
10:14:04,30-Sep-21,0.518,0.513,0.268324,0.263169
10:14:04,30-Sep-21,0.518,0.513,0.268324,0.263169
10:14:04,30-Sep-21,0.518,0.513,0.268324,0.263169
10:14:04,30-Sep-21,0.513,0.512,0.263169,0.262144
10:14:04,30-Sep-21,0.513,0.512,0.263169,0.262144
10:14:04,30-Sep-21,0.513,0.512,0.263169,0.262144
10:14:04,30-Sep-21,0.513,0.511,0.263169,0.261121
10:14:04,30-Sep-21,0.513,0.511,0.263169,0.261121
10:14:04,30-Sep-21,0.5035,0.511,0.25351225,0.261121
10:14:04,30-Sep-21,0.5035,0.51,0.25351225,0.2601
10:14:04,30-Sep-21,0.5035,0.51,0.25351225,0.2601
10:14:04,30-Sep-21,0.5035,0.51,0.25351225,0.2601
10:14:04,30-Sep-21,0.5035,0.509,0.25351225,0.259081
10:14:04,30-Sep-21,0.4985,0.509,0.24850225,0.259081
10:14:04,30-Sep-21,0.4985,0.508,0.24850225,0.258064
10:14:04,30-Sep-21,0.4985,0.508,0.24850225,0.258064
10:14:04,30-Sep-21,0.4935,0.508,0.24354225,0.258064
10:14:04,30-Sep-21,0.4935,0.507,0.24354225,0.257049
10:14:04,30-Sep-21,0.4935,0.507,0.24354225,0.257049
10:14:04,30-Sep-21,0.5035,0.507,0.25351225,0.257049
10:14:04,30-Sep-21,0.5035,0.506,0.25351225,0.256036
10:14:04,30-Sep-21,0.5035,0.506,0.25351225,0.256036
10:14:04,30-Sep-21,0.5035,0.506,0.25351225,0.256036
10:14:04,30-Sep-21,0.5035,0.505,0.25351225,0.255025
10:14:04,30-Sep-21,0.5035,0.505,0.25351225,0.255025
10:14:04,30-Sep-21,0.5035,0.505,0.25351225,0.255025
10:14:04,30-Sep-21,0.5035,0.505,0.25351225,0.255025
10:14:04,30-Sep-21,0.5035,0.504,0.25351225,0.254016
10:14:04,30-Sep-21,0.5085,0.504,0.25857225,0.254016
10:14:04,30-Sep-21,0.5085,0.504,0.25857225,0.254016
10:14:04,30-Sep-21,0.5085,0.504,0.25857225,0.254016
10:14:04,30-Sep-21,0.5085,0.503,0.25857225,0.253009
10:14:04,30-Sep-21,0.5085,0.503,0.25857225,0.253009
10:14:04,30-Sep-21,0.5085,0.503,0.25857225,0.253009
10:14:04,30-Sep-21,0.5085,0.503,0.25857225,0.253009
10:14:04,30-Sep-21,0.5085,0.503,0.25857225,0.253009
10:14:04,30-Sep-21,0.5085,0.502,0.25857225,0.252004
10:14:04,30-Sep-21,0.5085,0.502,0.25857225,0.252004
10:14:04,30-Sep-21,0.5085,0.502,0.25857225,0.252004
10:14:04,30-Sep-21,0.5085,0.502,0.25857225,0.252004
10:14:04,30-Sep-21,0.5085,0.502,0.25857225,0.252004
10:14:04,30-Sep-21,0.5035,0.501,0.25351225,0.251001
10:14:04,30-Sep-21,0.5035,0.501,0.25351225,0.251001
10:14:04,30-Sep-21,0.5035,0.501,0.25351225,0.251001
10:14:04,30-Sep-21,0.5035,0.501,0.25351225,0.251001
10:14:04,30-Sep-21,0.5035,0.501,0.25351225,0.251001
10:14:04,30-Sep-21,0.4935,0.501,0.24354225,0.251001
10:14:04,30-Sep-21,0.4935,0.501,0.24354225,0.251001
10:14:04,30-Sep-21,0.4935,0.501,0.24354225,0.251001
10:14:04,30-Sep-21,0.4935,0.501,0.24354225,0.251001
10:14:04,30-Sep-21,0.4935,0.5,0.24354225,0.25
10:14:04,30-Sep-21,0.4935,0.5,0.24354225,0.25
10:14:04,30-Sep-21,0.4935,0.5,0.24354225,0.25
10:14:04,30-Sep-21,0.4935,0.5,0.24354225,0.25
10:14:04,30-Sep-21,0.4935,0.5,0.24354225,0.25
10:14:04,30-Sep-21,0.4935,0.5,0.24354225,0.25
10:14:04,30-Sep-21,0.4935,0.5,0.24354225,0.25
10:14:04,30-Sep-21,0.4935,0.5,0.24354225,0.25
10:14:04,30-Sep-21,0.4935,0.5,0.24354225,0.25
10:14:04,30-Sep-21,0.4935,0.5,0.24354225,0.25
10:14:05,30-Sep-21,0.4935,0.5,0.24354225,0.25
10:14:05,30-Sep-21,0.4935,0.5,0.24354225,0.25
10:14:05,30-Sep-21,0.4935,0.5,0.24354225,0.25
10:14:05,30-Sep-21,0.4935,0.5,0.24354225,0.25
10:14:05,30-Sep-21,0.5085,0.5,0.25857225,0.25
10:14:05,30-Sep-21,0.5085,0.499,0.25857225,0.249001
10:14:05,30-Sep-21,0.5085,0.499,0.25857225,0.249001
10:14:05,30-Sep-21,0.5085,0.499,0.25857225,0.249001
10:14:05,30-Sep-21,0.5085,0.499,0.25857225,0.249001
10:14:05,30-Sep-21,0.5085,0.499,0.25857225,0.249001
10:14:05,30-Sep-21,0.5085,0.499,0.25857225,0.249001
10:14:05,30-Sep-21,0.5085,0.498,0.25857225,0.248004
10:14:05,30-Sep-21,0.5085,0.498,0.25857225,0.248004
10:14:05,30-Sep-21,0.5085,0.498,0.25857225,0.248004
10:14:05,30-Sep-21,0.5085,0.498,0.25857225,0.248004
10:14:05,30-Sep-21,0.5035,0.497,0.25351225,0.247009
10:14:05,30-Sep-21,0.5035,0.497,0.25351225,0.247009
10:14:05,30-Sep-21,0.5035,0.497,0.25351225,0.247009
10:14:05,30-Sep-21,0.4985,0.496,0.24850225,0.246016
10:14:05,30-Sep-21,0.4985,0.496,0.24850225,0.246016
10:14:05,30-Sep-21,0.4985,0.496,0.24850225,0.246016
10:14:05,30-Sep-21,0.4985,0.495,0.24850225,0.245025
10:14:05,30-Sep-21,0.4935,0.495,0.24354225,0.245025
10:14:05,30-Sep-21,0.4935,0.495,0.24354225,0.245025
10:14:05,30-Sep-21,0.4935,0.494,0.24354225,0.244036
10:14:05,30-Sep-21,0.4935,0.494,0.24354225,0.244036
10:14:05,30-Sep-21,0.4935,0.493,0.24354225,0.243049
10:14:05,30-Sep-21,0.4935,0.493,0.24354225,0.243049
10:14:05,30-Sep-21,0.489,0.493,0.239121,0.243049
10:14:05,30-Sep-21,0.489,0.492,0.239121,0.242064
10:14:05,30-Sep-21,0.489,0.492,0.239121,0.242064
10:14:05,30-Sep-21,0.489,0.492,0.239121,0.242064
10:14:05,30-Sep-21,0.484,0.492,0.234256,0.242064
10:14:05,30-Sep-21,0.484,0.491,0.234256,0.241081
10:14:05,30-Sep-21,0.484,0.491,0.234256,0.241081
10:14:05,30-Sep-21,0.484,0.491,0.234256,0.241081
10:14:05,30-Sep-21,0.484,0.491,0.234256,0.241081
10:14:05,30-Sep-21,0.484,0.491,0.234256,0.241081
10:14:05,30-Sep-21,0.484,0.491,0.234256,0.241081
10:14:05,30-Sep-21,0.484,0.49,0.234256,0.2401
10:14:05,30-Sep-21,0.484,0.49,0.234256,0.2401
10:14:05,30-Sep-21,0.484,0.49,0.234256,0.2401
10:14:05,30-Sep-21,0.484,0.49,0.234256,0.2401
10:14:05,30-Sep-21,0.484,0.49,0.234256,0.2401
10:14:05,30-Sep-21,0.484,0.491,0.234256,0.241081
10:14:05,30-Sep-21,0.484,0.491,0.234256,0.241081
10:14:05,30-Sep-21,0.484,0.491,0.234256,0.241081
10:14:05,30-Sep-21,0.484,0.491,0.234256,0.241081
10:14:05,30-Sep-21,0.489,0.491,0.239121,0.241081
10:14:05,30-Sep-21,0.489,0.491,0.239121,0.241081
10:14:05,30-Sep-21,0.489,0.491,0.239121,0.241081
10:14:05,30-Sep-21,0.489,0.491,0.239121,0.241081
10:14:05,30-Sep-21,0.4985,0.492,0.24850225,0.242064
10:14:05,30-Sep-21,0.4985,0.492,0.24850225,0.242064
10:14:05,30-Sep-21,0.4985,0.492,0.24850225,0.242064
10:14:05,30-Sep-21,0.4985,0.492,0.24850225,0.242064
10:14:05,30-Sep-21,0.4985,0.492,0.24850225,0.242064
10:14:05,30-Sep-21,0.4985,0.492,0.24850225,0.242064
10:14:05,30-Sep-21,0.4985,0.493,0.24850225,0.243049
10:14:05,30-Sep-21,0.4985,0.493,0.24850225,0.243049
10:14:05,30-Sep-21,0.4985,0.493,0.24850225,0.243049
10:14:05,30-Sep-21,0.4985,0.493,0.24850225,0.243049
10:14:05,30-Sep-21,0.4985,0.493,0.24850225,0.243049
10:14:05,30-Sep-21,0.4985,0.493,0.24850225,0.243049
10:14:05,30-Sep-21,0.4985,0.493,0.24850225,0.243049
10:14:05,30-Sep-21,0.4985,0.493,0.24850225,0.243049
10:14:05,30-Sep-21,0.4985,0.493,0.24850225,0.243049
10:14:05,30-Sep-21,0.4985,0.493,0.24850225,0.243049
10:14:05,30-Sep-21,0.4985,0.493,0.24850225,0.243049
10:14:05,30-Sep-21,0.4985,0.493,0.24850225,0.243049
10:14:05,30-Sep-21,0.4985,0.492,0.24850225,0.242064
10:14:05,30-Sep-21,0.4985,0.492,0.24850225,0.242064
10:14:05,30-Sep-21,0.4985,0.492,0.24850225,0.242064
10:14:05,30-Sep-21,0.489,0.492,0.239121,0.242064
10:14:05,30-Sep-21,0.489,0.492,0.239121,0.242064
10:14:05,30-Sep-21,0.489,0.491,0.239121,0.241081
10:14:05,30-Sep-21,0.489,0.491,0.239121,0.241081
10:14:05,30-Sep-21,0.489,0.491,0.239121,0.241081
10:14:05,30-Sep-21,0.489,0.491,0.239121,0.241081
10:14:05,30-Sep-21,0.489,0.49,0.239121,0.2401
10:14:05,30-Sep-21,0.489,0.49,0.239121,0.2401
10:14:05,30-Sep-21,0.489,0.49,0.239121,0.2401
10:14:05,30-Sep-21,0.489,0.489,0.239121,0.239121
10:14:05,30-Sep-21,0.484,0.489,0.234256,0.239121
10:14:05,30-Sep-21,0.484,0.489,0.234256,0.239121
10:14:05,30-Sep-21,0.484,0.489,0.234256,0.239121
10:14:05,30-Sep-21,0.479,0.488,0.229441,0.238144
10:14:05,30-Sep-21,0.479,0.488,0.229441,0.238144
10:14:05,30-Sep-21,0.479,0.488,0.229441,0.238144
10:14:05,30-Sep-21,0.479,0.487,0.229441,0.237169
10:14:05,30-Sep-21,0.479,0.487,0.229441,0.237169
10:14:05,30-Sep-21,0.479,0.487,0.229441,0.237169
10:14:05,30-Sep-21,0.479,0.487,0.229441,0.237169
10:14:05,30-Sep-21,0.484,0.486,0.234256,0.236196
10:14:05,30-Sep-21,0.484,0.486,0.234256,0.236196
10:14:05,30-Sep-21,0.484,0.486,0.234256,0.236196
10:14:05,30-Sep-21,0.484,0.486,0.234256,0.236196
10:14:05,30-Sep-21,0.484,0.486,0.234256,0.236196
10:14:05,30-Sep-21,0.484,0.485,0.234256,0.235225
10:14:05,30-Sep-21,0.484,0.485,0.234256,0.235225
10:14:05,30-Sep-21,0.484,0.485,0.234256,0.235225
10:14:05,30-Sep-21,0.484,0.485,0.234256,0.235225
10:14:05,30-Sep-21,0.484,0.485,0.234256,0.235225
10:14:05,30-Sep-21,0.4935,0.484,0.24354225,0.234256
10:14:05,30-Sep-21,0.4935,0.484,0.24354225,0.234256
10:14:05,30-Sep-21,0.4935,0.484,0.24354225,0.234256
10:14:05,30-Sep-21,0.4935,0.484,0.24354225,0.234256
10:14:05,30-Sep-21,0.4935,0.484,0.24354225,0.234256
10:14:05,30-Sep-21,0.4935,0.484,0.24354225,0.234256
10:14:05,30-Sep-21,0.489,0.483,0.239121,0.233289
10:14:05,30-Sep-21,0.489,0.483,0.239121,0.233289
10:14:05,30-Sep-21,0.489,0.483,0.239121,0.233289
10:14:05,30-Sep-21,0.489,0.483,0.239121,0.233289
10:14:05,30-Sep-21,0.489,0.483,0.239121,0.233289
10:14:05,30-Sep-21,0.489,0.483,0.239121,0.233289
10:14:05,30-Sep-21,0.489,0.483,0.239121,0.233289
10:14:05,30-Sep-21,0.489,0.483,0.239121,0.233289
10:14:05,30-Sep-21,0.489,0.483,0.239121,0.233289
10:14:05,30-Sep-21,0.489,0.483,0.239121,0.233289
10:14:05,30-Sep-21,0.484,0.483,0.234256,0.233289
10:14:05,30-Sep-21,0.484,0.483,0.234256,0.233289
10:14:05,30-Sep-21,0.484,0.483,0.234256,0.233289
10:14:05,30-Sep-21,0.484,0.483,0.234256,0.233289
10:14:05,30-Sep-21,0.479,0.483,0.229441,0.233289
10:14:05,30-Sep-21,0.479,0.483,0.229441,0.233289
10:14:05,30-Sep-21,0.479,0.484,0.229441,0.234256
10:14:05,30-Sep-21,0.479,0.484,0.229441,0.234256
10:14:05,30-Sep-21,0.479,0.484,0.229441,0.234256
10:14:05,30-Sep-21,0.479,0.485,0.229441,0.235225
10:14:05,30-Sep-21,0.474,0.485,0.224676,0.235225
10:14:05,30-Sep-21,0.474,0.486,0.224676,0.236196
10:14:05,30-Sep-21,0.474,0.486,0.224676,0.236196
10:14:05,30-Sep-21,0.474,0.487,0.224676,0.237169
10:14:05,30-Sep-21,0.474,0.487,0.224676,0.237169
10:14:05,30-Sep-21,0.474,0.488,0.224676,0.238144
10:14:05,30-Sep-21,0.479,0.489,0.229441,0.239121
10:14:05,30-Sep-21,0.479,0.49,0.229441,0.2401
10:14:05,30-Sep-21,0.479,0.49,0.229441,0.2401
10:14:05,30-Sep-21,0.479,0.491,0.229441,0.241081
10:14:05,30-Sep-21,0.4935,0.492,0.24354225,0.242064
10:14:05,30-Sep-21,0.4935,0.493,0.24354225,0.243049
10:14:05,30-Sep-21,0.4935,0.494,0.24354225,0.244036
10:14:05,30-Sep-21,0.4985,0.495,0.24850225,0.245025
10:14:05,30-Sep-21,0.4985,0.496,0.24850225,0.246016
10:14:05,30-Sep-21,0.4985,0.497,0.24850225,0.247009
10:14:05,30-Sep-21,0.5085,0.498,0.25857225,0.248004
10:14:05,30-Sep-21,0.5085,0.499,0.25857225,0.249001
10:14:05,30-Sep-21,0.5085,0.5,0.25857225,0.25
10:14:05,30-Sep-21,0.5085,0.501,0.25857225,0.251001
10:14:05,30-Sep-21,0.513,0.502,0.263169,0.252004
10:14:05,30-Sep-21,0.513,0.503,0.263169,0.253009
10:14:05,30-Sep-21,0.513,0.504,0.263169,0.254016
10:14:05,30-Sep-21,0.513,0.505,0.263169,0.255025
10:14:05,30-Sep-21,0.513,0.506,0.263169,0.256036
10:14:05,30-Sep-21,0.513,0.508,0.263169,0.258064
10:14:05,30-Sep-21,0.513,0.509,0.263169,0.259081
10:14:05,30-Sep-21,0.513,0.51,0.263169,0.2601
10:14:05,30-Sep-21,0.513,0.511,0.263169,0.261121
10:14:05,30-Sep-21,0.513,0.511,0.263169,0.261121
10:14:05,30-Sep-21,0.513,0.512,0.263169,0.262144
10:14:05,30-Sep-21,0.513,0.513,0.263169,0.263169
10:14:05,30-Sep-21,0.513,0.514,0.263169,0.264196
10:14:05,30-Sep-21,0.513,0.515,0.263169,0.265225
10:14:05,30-Sep-21,0.513,0.516,0.263169,0.266256
10:14:05,30-Sep-21,0.513,0.517,0.263169,0.267289
10:14:05,30-Sep-21,0.513,0.518,0.263169,0.268324
10:14:05,30-Sep-21,0.513,0.518,0.263169,0.268324
10:14:05,30-Sep-21,0.513,0.519,0.263169,0.269361
10:14:05,30-Sep-21,0.513,0.52,0.263169,0.2704
10:14:05,30-Sep-21,0.513,0.52,0.263169,0.2704
10:14:05,30-Sep-21,0.513,0.521,0.263169,0.271441
10:14:05,30-Sep-21,0.513,0.522,0.263169,0.272484
10:14:05,30-Sep-21,0.518,0.522,0.268324,0.272484
10:14:05,30-Sep-21,0.518,0.523,0.268324,0.273529
10:14:05,30-Sep-21,0.518,0.523,0.268324,0.273529
10:14:05,30-Sep-21,0.5325,0.524,0.28355625,0.274576
10:14:05,30-Sep-21,0.5325,0.524,0.28355625,0.274576
10:14:05,30-Sep-21,0.5325,0.525,0.28355625,0.275625
10:14:05,30-Sep-21,0.5325,0.525,0.28355625,0.275625
10:14:05,30-Sep-21,0.5325,0.525,0.28355625,0.275625
10:14:05,30-Sep-21,0.5325,0.526,0.28355625,0.276676
10:14:05,30-Sep-21,0.5325,0.526,0.28355625,0.276676
10:14:05,30-Sep-21,0.5325,0.526,0.28355625,0.276676
10:14:05,30-Sep-21,0.5325,0.526,0.28355625,0.276676
10:14:05,30-Sep-21,0.5325,0.527,0.28355625,0.277729
10:14:05,30-Sep-21,0.5325,0.527,0.28355625,0.277729
10:14:05,30-Sep-21,0.5325,0.527,0.28355625,0.277729
10:14:05,30-Sep-21,0.5325,0.527,0.28355625,0.277729
10:14:05,30-Sep-21,0.5325,0.527,0.28355625,0.277729
10:14:05,30-Sep-21,0.5325,0.527,0.28355625,0.277729
10:14:05,30-Sep-21,0.528,0.527,0.278784,0.277729
10:14:05,30-Sep-21,0.528,0.527,0.278784,0.277729
10:14:05,30-Sep-21,0.528,0.527,0.278784,0.277729
10:14:05,30-Sep-21,0.528,0.527,0.278784,0.277729
10:14:05,30-Sep-21,0.523,0.527,0.273529,0.277729
10:14:05,30-Sep-21,0.523,0.527,0.273529,0.277729
10:14:05,30-Sep-21,0.523,0.527,0.273529,0.277729
10:14:05,30-Sep-21,0.523,0.527,0.273529,0.277729
10:14:05,30-Sep-21,0.518,0.527,0.268324,0.277729
10:14:05,30-Sep-21,0.518,0.527,0.268324,0.277729
10:14:05,30-Sep-21,0.518,0.527,0.268324,0.277729
10:14:05,30-Sep-21,0.518,0.527,0.268324,0.277729
10:14:05,30-Sep-21,0.518,0.527,0.268324,0.277729
10:14:05,30-Sep-21,0.518,0.527,0.268324,0.277729
10:14:05,30-Sep-21,0.518,0.527,0.268324,0.277729
10:14:05,30-Sep-21,0.518,0.528,0.268324,0.278784
10:14:06,30-Sep-21,0.518,0.528,0.268324,0.278784
10:14:06,30-Sep-21,0.518,0.528,0.268324,0.278784
10:14:06,30-Sep-21,0.523,0.528,0.273529,0.278784
10:14:06,30-Sep-21,0.523,0.528,0.273529,0.278784
10:14:06,30-Sep-21,0.523,0.528,0.273529,0.278784
10:14:06,30-Sep-21,0.528,0.528,0.278784,0.278784
10:14:06,30-Sep-21,0.528,0.528,0.278784,0.278784
10:14:06,30-Sep-21,0.528,0.528,0.278784,0.278784
10:14:06,30-Sep-21,0.5425,0.528,0.29430625,0.278784
10:14:06,30-Sep-21,0.5425,0.528,0.29430625,0.278784
10:14:06,30-Sep-21,0.5375,0.529,0.28890625,0.279841
10:14:06,30-Sep-21,0.5375,0.529,0.28890625,0.279841
10:14:06,30-Sep-21,0.5375,0.529,0.28890625,0.279841
10:14:06,30-Sep-21,0.5375,0.529,0.28890625,0.279841
10:14:06,30-Sep-21,0.5375,0.529,0.28890625,0.279841
10:14:06,30-Sep-21,0.5375,0.529,0.28890625,0.279841
10:14:06,30-Sep-21,0.5375,0.529,0.28890625,0.279841
10:14:06,30-Sep-21,0.5375,0.529,0.28890625,0.279841
10:14:06,30-Sep-21,0.5375,0.529,0.28890625,0.279841
10:14:06,30-Sep-21,0.5375,0.529,0.28890625,0.279841
10:14:06,30-Sep-21,0.5375,0.529,0.28890625,0.279841
10:14:06,30-Sep-21,0.528,0.529,0.278784,0.279841
10:14:06,30-Sep-21,0.528,0.529,0.278784,0.279841
10:14:06,30-Sep-21,0.528,0.529,0.278784,0.279841
10:14:06,30-Sep-21,0.528,0.529,0.278784,0.279841
10:14:06,30-Sep-21,0.528,0.53,0.278784,0.2809
10:14:06,30-Sep-21,0.518,0.53,0.268324,0.2809
10:14:06,30-Sep-21,0.518,0.53,0.268324,0.2809
10:14:06,30-Sep-21,0.518,0.53,0.268324,0.2809
10:14:06,30-Sep-21,0.518,0.53,0.268324,0.2809
10:14:06,30-Sep-21,0.518,0.53,0.268324,0.2809
10:14:06,30-Sep-21,0.518,0.53,0.268324,0.2809
10:14:06,30-Sep-21,0.523,0.53,0.273529,0.2809
10:14:06,30-Sep-21,0.523,0.53,0.273529,0.2809
10:14:06,30-Sep-21,0.523,0.53,0.273529,0.2809
10:14:06,30-Sep-21,0.523,0.53,0.273529,0.2809
10:14:06,30-Sep-21,0.523,0.53,0.273529,0.2809
10:14:06,30-Sep-21,0.5325,0.53,0.28355625,0.2809
10:14:06,30-Sep-21,0.5325,0.53,0.28355625,0.2809
10:14:06,30-Sep-21,0.5325,0.53,0.28355625,0.2809
10:14:06,30-Sep-21,0.5325,0.529,0.28355625,0.279841
10:14:06,30-Sep-21,0.5325,0.529,0.28355625,0.279841
10:14:06,30-Sep-21,0.5375,0.529,0.28890625,0.279841
10:14:06,30-Sep-21,0.5375,0.529,0.28890625,0.279841
10:14:06,30-Sep-21,0.5375,0.529,0.28890625,0.279841
10:14:06,30-Sep-21,0.5375,0.529,0.28890625,0.279841
10:14:06,30-Sep-21,0.5375,0.529,0.28890625,0.279841
10:14:06,30-Sep-21,0.5375,0.529,0.28890625,0.279841
10:14:06,30-Sep-21,0.5375,0.529,0.28890625,0.279841
10:14:06,30-Sep-21,0.5375,0.529,0.28890625,0.279841
10:14:06,30-Sep-21,0.5375,0.529,0.28890625,0.279841
10:14:06,30-Sep-21,0.5375,0.529,0.28890625,0.279841
10:14:06,30-Sep-21,0.5375,0.528,0.28890625,0.278784
10:14:06,30-Sep-21,0.5325,0.528,0.28355625,0.278784
10:14:06,30-Sep-21,0.5325,0.528,0.28355625,0.278784
10:14:06,30-Sep-21,0.5325,0.528,0.28355625,0.278784
10:14:06,30-Sep-21,0.523,0.528,0.273529,0.278784
10:14:06,30-Sep-21,0.523,0.528,0.273529,0.278784
10:14:06,30-Sep-21,0.523,0.528,0.273529,0.278784
10:14:06,30-Sep-21,0.523,0.528,0.273529,0.278784
10:14:06,30-Sep-21,0.523,0.527,0.273529,0.277729
10:14:06,30-Sep-21,0.523,0.527,0.273529,0.277729
10:14:06,30-Sep-21,0.523,0.527,0.273529,0.277729
10:14:06,30-Sep-21,0.523,0.527,0.273529,0.277729
10:14:06,30-Sep-21,0.523,0.527,0.273529,0.277729
10:14:06,30-Sep-21,0.518,0.527,0.268324,0.277729
10:14:06,30-Sep-21,0.518,0.527,0.268324,0.277729
10:14:06,30-Sep-21,0.518,0.527,0.268324,0.277729
10:14:06,30-Sep-21,0.518,0.527,0.268324,0.277729
10:14:06,30-Sep-21,0.518,0.527,0.268324,0.277729
10:14:06,30-Sep-21,0.518,0.527,0.268324,0.277729
10:14:06,30-Sep-21,0.518,0.527,0.268324,0.277729
10:14:06,30-Sep-21,0.518,0.528,0.268324,0.278784
10:14:06,30-Sep-21,0.518,0.528,0.268324,0.278784
10:14:06,30-Sep-21,0.518,0.528,0.268324,0.278784
10:14:06,30-Sep-21,0.5325,0.528,0.28355625,0.278784
10:14:06,30-Sep-21,0.5325,0.528,0.28355625,0.278784
10:14:06,30-Sep-21,0.5325,0.528,0.28355625,0.278784
10:14:06,30-Sep-21,0.5325,0.528,0.28355625,0.278784
10:14:06,30-Sep-21,0.5325,0.528,0.28355625,0.278784
10:14:06,30-Sep-21,0.5325,0.529,0.28355625,0.279841
10:14:06,30-Sep-21,0.5325,0.529,0.28355625,0.279841
10:14:06,30-Sep-21,0.5325,0.529,0.28355625,0.279841
10:14:06,30-Sep-21,0.5325,0.529,0.28355625,0.279841
10:14:06,30-Sep-21,0.5325,0.529,0.28355625,0.279841
10:14:06,30-Sep-21,0.5375,0.529,0.28890625,0.279841
10:14:06,30-Sep-21,0.5375,0.529,0.28890625,0.279841
10:14:06,30-Sep-21,0.5375,0.53,0.28890625,0.2809
10:14:06,30-Sep-21,0.5375,0.53,0.28890625,0.2809
10:14:06,30-Sep-21,0.5375,0.53,0.28890625,0.2809
10:14:06,30-Sep-21,0.5375,0.53,0.28890625,0.2809
10:14:06,30-Sep-21,0.5325,0.53,0.28355625,0.2809
10:14:06,30-Sep-21,0.5325,0.53,0.28355625,0.2809
10:14:06,30-Sep-21,0.5325,0.53,0.28355625,0.2809
10:14:06,30-Sep-21,0.5325,0.53,0.28355625,0.2809
10:14:06,30-Sep-21,0.5325,0.53,0.28355625,0.2809
10:14:06,30-Sep-21,0.5325,0.53,0.28355625,0.2809
10:14:06,30-Sep-21,0.5325,0.53,0.28355625,0.2809
10:14:06,30-Sep-21,0.5325,0.53,0.28355625,0.2809
10:14:06,30-Sep-21,0.528,0.53,0.278784,0.2809
10:14:06,30-Sep-21,0.528,0.53,0.278784,0.2809
10:14:06,30-Sep-21,0.528,0.53,0.278784,0.2809
10:14:06,30-Sep-21,0.523,0.529,0.273529,0.279841
10:14:06,30-Sep-21,0.523,0.529,0.273529,0.279841
10:14:06,30-Sep-21,0.523,0.529,0.273529,0.279841
10:14:06,30-Sep-21,0.523,0.529,0.273529,0.279841
10:14:06,30-Sep-21,0.523,0.529,0.273529,0.279841
10:14:06,30-Sep-21,0.523,0.529,0.273529,0.279841
10:14:06,30-Sep-21,0.523,0.529,0.273529,0.279841
10:14:06,30-Sep-21,0.523,0.529,0.273529,0.279841
10:14:06,30-Sep-21,0.523,0.529,0.273529,0.279841
10:14:06,30-Sep-21,0.523,0.529,0.273529,0.279841
10:14:06,30-Sep-21,0.523,0.529,0.273529,0.279841
10:14:06,30-Sep-21,0.523,0.528,0.273529,0.278784
10:14:06,30-Sep-21,0.523,0.528,0.273529,0.278784
10:14:06,30-Sep-21,0.5325,0.528,0.28355625,0.278784
10:14:06,30-Sep-21,0.5325,0.528,0.28355625,0.278784
10:14:06,30-Sep-21,0.5325,0.528,0.28355625,0.278784
10:14:06,30-Sep-21,0.5375,0.528,0.28890625,0.278784
10:14:06,30-Sep-21,0.5375,0.528,0.28890625,0.278784
10:14:06,30-Sep-21,0.5375,0.528,0.28890625,0.278784
10:14:06,30-Sep-21,0.5375,0.528,0.28890625,0.278784
10:14:06,30-Sep-21,0.5375,0.528,0.28890625,0.278784
10:14:06,30-Sep-21,0.5375,0.528,0.28890625,0.278784
10:14:06,30-Sep-21,0.5375,0.528,0.28890625,0.278784
10:14:06,30-Sep-21,0.5375,0.528,0.28890625,0.278784
10:14:06,30-Sep-21,0.528,0.528,0.278784,0.278784
10:14:06,30-Sep-21,0.528,0.528,0.278784,0.278784
10:14:06,30-Sep-21,0.528,0.528,0.278784,0.278784
10:14:06,30-Sep-21,0.528,0.528,0.278784,0.278784
10:14:06,30-Sep-21,0.528,0.528,0.278784,0.278784
10:14:06,30-Sep-21,0.528,0.528,0.278784,0.278784
10:14:06,30-Sep-21,0.528,0.528,0.278784,0.278784
10:14:06,30-Sep-21,0.528,0.528,0.278784,0.278784
10:14:06,30-Sep-21,0.523,0.528,0.273529,0.278784
10:14:06,30-Sep-21,0.523,0.528,0.273529,0.278784
10:14:06,30-Sep-21,0.518,0.529,0.268324,0.279841
10:14:06,30-Sep-21,0.518,0.529,0.268324,0.279841
10:14:06,30-Sep-21,0.518,0.529,0.268324,0.279841
10:14:06,30-Sep-21,0.518,0.529,0.268324,0.279841
10:14:06,30-Sep-21,0.518,0.53,0.268324,0.2809
10:14:06,30-Sep-21,0.518,0.53,0.268324,0.2809
10:14:06,30-Sep-21,0.523,0.53,0.273529,0.2809
10:14:06,30-Sep-21,0.523,0.53,0.273529,0.2809
10:14:06,30-Sep-21,0.523,0.531,0.273529,0.281961
10:14:06,30-Sep-21,0.523,0.531,0.273529,0.281961
10:14:06,30-Sep-21,0.523,0.531,0.273529,0.281961
10:14:06,30-Sep-21,0.528,0.532,0.278784,0.283024
10:14:06,30-Sep-21,0.528,0.532,0.278784,0.283024
10:14:06,30-Sep-21,0.528,0.533,0.278784,0.284089
10:14:06,30-Sep-21,0.5375,0.533,0.28890625,0.284089
10:14:06,30-Sep-21,0.5375,0.533,0.28890625,0.284089
10:14:06,30-Sep-21,0.5425,0.534,0.29430625,0.285156
10:14:06,30-Sep-21,0.5425,0.534,0.29430625,0.285156
10:14:06,30-Sep-21,0.5425,0.534,0.29430625,0.285156
10:14:06,30-Sep-21,0.5425,0.535,0.29430625,0.286225
10:14:06,30-Sep-21,0.5425,0.535,0.29430625,0.286225
10:14:06,30-Sep-21,0.5425,0.535,0.29430625,0.286225
10:14:06,30-Sep-21,0.5425,0.536,0.29430625,0.287296
10:14:06,30-Sep-21,0.5425,0.536,0.29430625,0.287296
10:14:06,30-Sep-21,0.5425,0.536,0.29430625,0.287296
10:14:06,30-Sep-21,0.5425,0.536,0.29430625,0.287296
10:14:06,30-Sep-21,0.5425,0.536,0.29430625,0.287296
10:14:06,30-Sep-21,0.5425,0.536,0.29430625,0.287296
10:14:06,30-Sep-21,0.5425,0.537,0.29430625,0.288369
10:14:06,30-Sep-21,0.5425,0.537,0.29430625,0.288369
10:14:06,30-Sep-21,0.5425,0.537,0.29430625,0.288369
10:14:06,30-Sep-21,0.5425,0.537,0.29430625,0.288369
10:14:06,30-Sep-21,0.5425,0.537,0.29430625,0.288369
10:14:06,30-Sep-21,0.5425,0.537,0.29430625,0.288369
10:14:06,30-Sep-21,0.5425,0.537,0.29430625,0.288369
10:14:06,30-Sep-21,0.5425,0.537,0.29430625,0.288369
10:14:06,30-Sep-21,0.5375,0.537,0.28890625,0.288369
10:14:06,30-Sep-21,0.5375,0.537,0.28890625,0.288369
10:14:06,30-Sep-21,0.5375,0.536,0.28890625,0.287296
10:14:06,30-Sep-21,0.5325,0.536,0.28355625,0.287296
10:14:06,30-Sep-21,0.5325,0.536,0.28355625,0.287296
10:14:06,30-Sep-21,0.5325,0.536,0.28355625,0.287296
10:14:06,30-Sep-21,0.528,0.536,0.278784,0.287296
10:14:06,30-Sep-21,0.528,0.536,0.278784,0.287296
10:14:06,30-Sep-21,0.528,0.536,0.278784,0.287296
10:14:06,30-Sep-21,0.528,0.536,0.278784,0.287296
10:14:06,30-Sep-21,0.523,0.535,0.273529,0.286225
10:14:06,30-Sep-21,0.523,0.535,0.273529,0.286225
10:14:07,30-Sep-21,0.523,0.535,0.273529,0.286225
10:14:07,30-Sep-21,0.523,0.535,0.273529,0.286225
10:14:07,30-Sep-21,0.523,0.535,0.273529,0.286225
10:14:07,30-Sep-21,0.523,0.535,0.273529,0.286225
10:14:07,30-Sep-21,0.523,0.535,0.273529,0.286225
10:14:07,30-Sep-21,0.5325,0.535,0.28355625,0.286225
10:14:07,30-Sep-21,0.5325,0.534,0.28355625,0.285156
10:14:07,30-Sep-21,0.5325,0.534,0.28355625,0.285156
10:14:07,30-Sep-21,0.5375,0.534,0.28890625,0.285156
10:14:07,30-Sep-21,0.5375,0.534,0.28890625,0.285156
10:14:07,30-Sep-21,0.5425,0.534,0.29430625,0.285156
10:14:07,30-Sep-21,0.5425,0.534,0.29430625,0.285156
10:14:07,30-Sep-21,0.5425,0.534,0.29430625,0.285156
10:14:07,30-Sep-21,0.5425,0.534,0.29430625,0.285156
10:14:07,30-Sep-21,0.5425,0.534,0.29430625,0.285156
10:14:07,30-Sep-21,0.5425,0.533,0.29430625,0.284089
10:14:07,30-Sep-21,0.5425,0.533,0.29430625,0.284089
10:14:07,30-Sep-21,0.5425,0.533,0.29430625,0.284089
10:14:07,30-Sep-21,0.5425,0.533,0.29430625,0.284089
10:14:07,30-Sep-21,0.5425,0.533,0.29430625,0.284089
10:14:07,30-Sep-21,0.5425,0.533,0.29430625,0.284089
10:14:07,30-Sep-21,0.5375,0.533,0.28890625,0.284089
10:14:07,30-Sep-21,0.5375,0.533,0.28890625,0.284089
10:14:07,30-Sep-21,0.5375,0.533,0.28890625,0.284089
10:14:07,30-Sep-21,0.5375,0.532,0.28890625,0.283024
10:14:07,30-Sep-21,0.5375,0.532,0.28890625,0.283024
10:14:07,30-Sep-21,0.528,0.532,0.278784,0.283024
10:14:07,30-Sep-21,0.528,0.532,0.278784,0.283024
10:14:07,30-Sep-21,0.528,0.532,0.278784,0.283024
10:14:07,30-Sep-21,0.523,0.532,0.273529,0.283024
10:14:07,30-Sep-21,0.523,0.532,0.273529,0.283024
10:14:07,30-Sep-21,0.523,0.532,0.273529,0.283024
10:14:07,30-Sep-21,0.523,0.532,0.273529,0.283024
10:14:07,30-Sep-21,0.523,0.532,0.273529,0.283024
10:14:07,30-Sep-21,0.523,0.532,0.273529,0.283024
10:14:07,30-Sep-21,0.523,0.532,0.273529,0.283024
10:14:07,30-Sep-21,0.523,0.532,0.273529,0.283024
10:14:07,30-Sep-21,0.523,0.532,0.273529,0.283024
10:14:07,30-Sep-21,0.523,0.532,0.273529,0.283024
10:14:07,30-Sep-21,0.5325,0.533,0.28355625,0.284089
10:14:07,30-Sep-21,0.5325,0.533,0.28355625,0.284089
10:14:07,30-Sep-21,0.5325,0.533,0.28355625,0.284089
10:14:07,30-Sep-21,0.5375,0.533,0.28890625,0.284089
10:14:07,30-Sep-21,0.5375,0.533,0.28890625,0.284089
10:14:07,30-Sep-21,0.5375,0.533,0.28890625,0.284089
10:14:07,30-Sep-21,0.5375,0.534,0.28890625,0.285156
10:14:07,30-Sep-21,0.5375,0.534,0.28890625,0.285156
10:14:07,30-Sep-21,0.5375,0.534,0.28890625,0.285156
10:14:07,30-Sep-21,0.5375,0.534,0.28890625,0.285156
10:14:07,30-Sep-21,0.5425,0.535,0.29430625,0.286225
10:14:07,30-Sep-21,0.5425,0.535,0.29430625,0.286225
10:14:07,30-Sep-21,0.5425,0.535,0.29430625,0.286225
10:14:07,30-Sep-21,0.5425,0.536,0.29430625,0.287296
10:14:07,30-Sep-21,0.5425,0.536,0.29430625,0.287296
10:14:07,30-Sep-21,0.5325,0.536,0.28355625,0.287296
10:14:07,30-Sep-21,0.5325,0.536,0.28355625,0.287296
10:14:07,30-Sep-21,0.5325,0.537,0.28355625,0.288369
10:14:07,30-Sep-21,0.5325,0.537,0.28355625,0.288369
10:14:07,30-Sep-21,0.5325,0.537,0.28355625,0.288369
10:14:07,30-Sep-21,0.5375,0.538,0.28890625,0.289444
10:14:07,30-Sep-21,0.5375,0.538,0.28890625,0.289444
10:14:07,30-Sep-21,0.5375,0.538,0.28890625,0.289444
10:14:07,30-Sep-21,0.5325,0.538,0.28355625,0.289444
10:14:07,30-Sep-21,0.5325,0.539,0.28355625,0.290521
10:14:07,30-Sep-21,0.5325,0.539,0.28355625,0.290521
10:14:07,30-Sep-21,0.528,0.539,0.278784,0.290521
10:14:07,30-Sep-21,0.528,0.539,0.278784,0.290521
10:14:07,30-Sep-21,0.5325,0.54,0.28355625,0.2916
10:14:07,30-Sep-21,0.5325,0.54,0.28355625,0.2916
10:14:07,30-Sep-21,0.5325,0.54,0.28355625,0.2916
10:14:07,30-Sep-21,0.5325,0.54,0.28355625,0.2916
10:14:07,30-Sep-21,0.5325,0.54,0.28355625,0.2916
10:14:07,30-Sep-21,0.5375,0.54,0.28890625,0.2916
10:14:07,30-Sep-21,0.5375,0.541,0.28890625,0.292681
10:14:07,30-Sep-21,0.5375,0.541,0.28890625,0.292681
10:14:07,30-Sep-21,0.5425,0.541,0.29430625,0.292681
10:14:07,30-Sep-21,0.5425,0.541,0.29430625,0.292681
10:14:07,30-Sep-21,0.5425,0.541,0.29430625,0.292681
10:14:07,30-Sep-21,0.5525,0.541,0.30525625,0.292681
10:14:07,30-Sep-21,0.5525,0.541,0.30525625,0.292681
10:14:07,30-Sep-21,0.5525,0.541,0.30525625,0.292681
10:14:07,30-Sep-21,0.5525,0.541,0.30525625,0.292681
10:14:07,30-Sep-21,0.5525,0.541,0.30525625,0.292681
10:14:07,30-Sep-21,0.5525,0.54,0.30525625,0.2916
10:14:07,30-Sep-21,0.5525,0.54,0.30525625,0.2916
10:14:07,30-Sep-21,0.5525,0.54,0.30525625,0.2916
10:14:07,30-Sep-21,0.5525,0.54,0.30525625,0.2916
10:14:07,30-Sep-21,0.5525,0.54,0.30525625,0.2916
10:14:07,30-Sep-21,0.5525,0.54,0.30525625,0.2916
10:14:07,30-Sep-21,0.557,0.54,0.310249,0.2916
10:14:07,30-Sep-21,0.557,0.54,0.310249,0.2916
10:14:07,30-Sep-21,0.557,0.54,0.310249,0.2916
10:14:07,30-Sep-21,0.557,0.54,0.310249,0.2916
10:14:07,30-Sep-21,0.5475,0.54,0.29975625,0.2916
10:14:07,30-Sep-21,0.5475,0.541,0.29975625,0.292681
10:14:07,30-Sep-21,0.5475,0.541,0.29975625,0.292681
10:14:07,30-Sep-21,0.5475,0.542,0.29975625,0.293764
10:14:07,30-Sep-21,0.5475,0.542,0.29975625,0.293764
10:14:07,30-Sep-21,0.5475,0.543,0.29975625,0.294849
10:14:07,30-Sep-21,0.5475,0.544,0.29975625,0.295936
10:14:07,30-Sep-21,0.5425,0.545,0.29430625,0.297025
10:14:07,30-Sep-21,0.5425,0.546,0.29430625,0.298116
10:14:07,30-Sep-21,0.5425,0.547,0.29430625,0.299209
10:14:07,30-Sep-21,0.5425,0.548,0.29430625,0.300304
10:14:07,30-Sep-21,0.5425,0.55,0.29430625,0.3025
10:14:07,30-Sep-21,0.5425,0.552,0.29430625,0.304704
10:14:07,30-Sep-21,0.5425,0.554,0.29430625,0.306916
10:14:07,30-Sep-21,0.5425,0.556,0.29430625,0.309136
10:14:07,30-Sep-21,0.5425,0.559,0.29430625,0.312481
10:14:07,30-Sep-21,0.5425,0.561,0.29430625,0.314721
10:14:07,30-Sep-21,0.5475,0.564,0.29975625,0.318096
10:14:07,30-Sep-21,0.5475,0.567,0.29975625,0.321489
10:14:07,30-Sep-21,0.5475,0.571,0.29975625,0.326041
10:14:07,30-Sep-21,0.567,0.574,0.321489,0.329476
10:14:07,30-Sep-21,0.567,0.578,0.321489,0.334084
10:14:07,30-Sep-21,0.567,0.582,0.321489,0.338724
10:14:07,30-Sep-21,0.5815,0.587,0.33814225,0.344569
10:14:07,30-Sep-21,0.5815,0.591,0.33814225,0.349281
10:14:07,30-Sep-21,0.5815,0.596,0.33814225,0.355216
10:14:07,30-Sep-21,0.611,0.601,0.373321,0.361201
10:14:07,30-Sep-21,0.611,0.607,0.373321,0.368449
10:14:07,30-Sep-21,0.611,0.612,0.373321,0.374544
10:14:07,30-Sep-21,0.611,0.618,0.373321,0.381924
10:14:07,30-Sep-21,0.611,0.624,0.373321,0.389376
10:14:07,30-Sep-21,0.611,0.63,0.373321,0.3969
10:14:07,30-Sep-21,0.6355,0.636,0.40386025,0.404496
10:14:07,30-Sep-21,0.6355,0.643,0.40386025,0.413449
10:14:07,30-Sep-21,0.6355,0.65,0.40386025,0.4225
10:14:07,30-Sep-21,0.66,0.656,0.4356,0.430336
10:14:07,30-Sep-21,0.66,0.663,0.4356,0.439569
10:14:07,30-Sep-21,0.66,0.67,0.4356,0.4489
10:14:07,30-Sep-21,0.6845,0.678,0.46854025,0.459684
10:14:07,30-Sep-21,0.6845,0.685,0.46854025,0.469225
10:14:07,30-Sep-21,0.6845,0.692,0.46854025,0.478864
10:14:07,30-Sep-21,0.704,0.699,0.495616,0.488601
10:14:07,30-Sep-21,0.704,0.707,0.495616,0.499849
10:14:07,30-Sep-21,0.7235,0.714,0.52345225,0.509796
10:14:07,30-Sep-21,0.7235,0.722,0.52345225,0.521284
10:14:07,30-Sep-21,0.7235,0.729,0.52345225,0.531441
10:14:07,30-Sep-21,0.7235,0.737,0.52345225,0.543169
10:14:07,30-Sep-21,0.7235,0.744,0.52345225,0.553536
10:14:07,30-Sep-21,0.7525,0.751,0.56625625,0.564001
10:14:07,30-Sep-21,0.7525,0.758,0.56625625,0.574564
10:14:07,30-Sep-21,0.7525,0.765,0.56625625,0.585225
10:14:07,30-Sep-21,0.777,0.772,0.603729,0.595984
10:14:07,30-Sep-21,0.777,0.779,0.603729,0.606841
10:14:07,30-Sep-21,0.7965,0.786,0.63441225,0.617796
10:14:07,30-Sep-21,0.7965,0.793,0.63441225,0.628849
10:14:07,30-Sep-21,0.7965,0.799,0.63441225,0.638401
10:14:07,30-Sep-21,0.836,0.805,0.698896,0.648025
10:14:07,30-Sep-21,0.836,0.811,0.698896,0.657721
10:14:07,30-Sep-21,0.836,0.817,0.698896,0.667489
10:14:07,30-Sep-21,0.8555,0.823,0.73188025,0.677329
10:14:07,30-Sep-21,0.8555,0.828,0.73188025,0.685584
10:14:07,30-Sep-21,0.8555,0.834,0.73188025,0.695556
10:14:07,30-Sep-21,0.8555,0.839,0.73188025,0.703921
10:14:07,30-Sep-21,0.8555,0.843,0.73188025,0.710649
10:14:07,30-Sep-21,0.875,0.848,0.765625,0.719104
10:14:07,30-Sep-21,0.875,0.852,0.765625,0.725904
10:14:07,30-Sep-21,0.875,0.856,0.765625,0.732736
10:14:07,30-Sep-21,0.875,0.86,0.765625,0.7396
10:14:07,30-Sep-21,0.88,0.864,0.7744,0.746496
10:14:07,30-Sep-21,0.88,0.867,0.7744,0.751689
10:14:07,30-Sep-21,0.88,0.87,0.7744,0.7569
10:14:07,30-Sep-21,0.88,0.873,0.7744,0.762129
10:14:07,30-Sep-21,0.88,0.876,0.7744,0.767376
10:14:07,30-Sep-21,0.88,0.878,0.7744,0.770884
10:14:07,30-Sep-21,0.88,0.881,0.7744,0.776161
10:14:07,30-Sep-21,0.88,0.883,0.7744,0.779689
10:14:07,30-Sep-21,0.88,0.885,0.7744,0.783225
10:14:07,30-Sep-21,0.88,0.887,0.7744,0.786769
10:14:07,30-Sep-21,0.88,0.888,0.7744,0.788544
10:14:07,30-Sep-21,0.88,0.89,0.7744,0.7921
10:14:07,30-Sep-21,0.8845,0.891,0.78234025,0.793881
10:14:07,30-Sep-21,0.8845,0.893,0.78234025,0.797449
10:14:07,30-Sep-21,0.875,0.894,0.765625,0.799236
10:14:07,30-Sep-21,0.875,0.895,0.765625,0.801025
10:14:07,30-Sep-21,0.875,0.896,0.765625,0.802816
10:14:07,30-Sep-21,0.875,0.897,0.765625,0.804609
10:14:07,30-Sep-21,0.875,0.897,0.765625,0.804609
10:14:08,30-Sep-21,0.88,0.898,0.7744,0.806404
10:14:08,30-Sep-21,0.88,0.899,0.7744,0.808201
10:14:08,30-Sep-21,0.88,0.899,0.7744,0.808201
10:14:08,30-Sep-21,0.8845,0.9,0.78234025,0.81
10:14:08,30-Sep-21,0.8845,0.9,0.78234025,0.81
10:14:08,30-Sep-21,0.8845,0.901,0.78234025,0.811801
10:14:08,30-Sep-21,0.8845,0.901,0.78234025,0.811801
10:14:08,30-Sep-21,0.8845,0.901,0.78234025,0.811801
10:14:08,30-Sep-21,0.909,0.902,0.826281,0.813604
10:14:08,30-Sep-21,0.909,0.902,0.826281,0.813604
10:14:08,30-Sep-21,0.909,0.902,0.826281,0.813604
10:14:08,30-Sep-21,0.914,0.902,0.835396,0.813604
10:14:08,30-Sep-21,0.914,0.902,0.835396,0.813604
10:14:08,30-Sep-21,0.919,0.902,0.844561,0.813604
10:14:08,30-Sep-21,0.919,0.902,0.844561,0.813604
10:14:08,30-Sep-21,0.914,0.902,0.835396,0.813604
10:14:08,30-Sep-21,0.914,0.902,0.835396,0.813604
10:14:08,30-Sep-21,0.914,0.902,0.835396,0.813604
10:14:08,30-Sep-21,0.914,0.902,0.835396,0.813604
10:14:08,30-Sep-21,0.914,0.902,0.835396,0.813604
10:14:08,30-Sep-21,0.914,0.902,0.835396,0.813604
10:14:08,30-Sep-21,0.914,0.902,0.835396,0.813604
10:14:08,30-Sep-21,0.914,0.902,0.835396,0.813604
10:14:08,30-Sep-21,0.904,0.902,0.817216,0.813604
10:14:08,30-Sep-21,0.904,0.902,0.817216,0.813604
10:14:08,30-Sep-21,0.904,0.902,0.817216,0.813604
10:14:08,30-Sep-21,0.8995,0.901,0.80910025,0.811801
10:14:08,30-Sep-21,0.8995,0.901,0.80910025,0.811801
10:14:08,30-Sep-21,0.8895,0.901,0.79121025,0.811801
10:14:08,30-Sep-21,0.8895,0.901,0.79121025,0.811801
10:14:08,30-Sep-21,0.8895,0.901,0.79121025,0.811801
10:14:08,30-Sep-21,0.8845,0.901,0.78234025,0.811801
10:14:08,30-Sep-21,0.8845,0.9,0.78234025,0.81
10:14:08,30-Sep-21,0.8845,0.9,0.78234025,0.81
10:14:08,30-Sep-21,0.8895,0.9,0.79121025,0.81
10:14:08,30-Sep-21,0.8895,0.9,0.79121025,0.81
10:14:08,30-Sep-21,0.8895,0.9,0.79121025,0.81
10:14:08,30-Sep-21,0.8895,0.899,0.79121025,0.808201
10:14:08,30-Sep-21,0.8895,0.899,0.79121025,0.808201
10:14:08,30-Sep-21,0.8895,0.899,0.79121025,0.808201
10:14:08,30-Sep-21,0.8945,0.899,0.80013025,0.808201
10:14:08,30-Sep-21,0.8945,0.899,0.80013025,0.808201
10:14:08,30-Sep-21,0.8945,0.898,0.80013025,0.806404
10:14:08,30-Sep-21,0.8945,0.898,0.80013025,0.806404
10:14:08,30-Sep-21,0.909,0.898,0.826281,0.806404
10:14:08,30-Sep-21,0.909,0.898,0.826281,0.806404
10:14:08,30-Sep-21,0.909,0.897,0.826281,0.804609
10:14:08,30-Sep-21,0.909,0.897,0.826281,0.804609
10:14:08,30-Sep-21,0.909,0.897,0.826281,0.804609
10:14:08,30-Sep-21,0.909,0.896,0.826281,0.802816
10:14:08,30-Sep-21,0.909,0.896,0.826281,0.802816
10:14:08,30-Sep-21,0.909,0.896,0.826281,0.802816
10:14:08,30-Sep-21,0.909,0.895,0.826281,0.801025
10:14:08,30-Sep-21,0.909,0.895,0.826281,0.801025
10:14:08,30-Sep-21,0.909,0.894,0.826281,0.799236
10:14:08,30-Sep-21,0.909,0.894,0.826281,0.799236
10:14:08,30-Sep-21,0.909,0.894,0.826281,0.799236
10:14:08,30-Sep-21,0.8995,0.893,0.80910025,0.797449
10:14:08,30-Sep-21,0.8995,0.893,0.80910025,0.797449
10:14:08,30-Sep-21,0.8995,0.892,0.80910025,0.795664
10:14:08,30-Sep-21,0.8995,0.892,0.80910025,0.795664
10:14:08,30-Sep-21,0.8945,0.891,0.80013025,0.793881
10:14:08,30-Sep-21,0.8945,0.891,0.80013025,0.793881
10:14:08,30-Sep-21,0.88,0.89,0.7744,0.7921
10:14:08,30-Sep-21,0.88,0.89,0.7744,0.7921
10:14:08,30-Sep-21,0.88,0.889,0.7744,0.790321
10:14:08,30-Sep-21,0.875,0.889,0.765625,0.790321
10:14:08,30-Sep-21,0.875,0.888,0.765625,0.788544
10:14:08,30-Sep-21,0.875,0.888,0.765625,0.788544
10:14:08,30-Sep-21,0.87,0.888,0.7569,0.788544
10:14:08,30-Sep-21,0.87,0.887,0.7569,0.786769
10:14:08,30-Sep-21,0.87,0.887,0.7569,0.786769
10:14:08,30-Sep-21,0.87,0.886,0.7569,0.784996
10:14:08,30-Sep-21,0.87,0.886,0.7569,0.784996
10:14:08,30-Sep-21,0.87,0.886,0.7569,0.784996
10:14:08,30-Sep-21,0.87,0.886,0.7569,0.784996
10:14:08,30-Sep-21,0.88,0.885,0.7744,0.783225
10:14:08,30-Sep-21,0.88,0.885,0.7744,0.783225
10:14:08,30-Sep-21,0.88,0.885,0.7744,0.783225
10:14:08,30-Sep-21,0.8845,0.885,0.78234025,0.783225
10:14:08,30-Sep-21,0.8845,0.885,0.78234025,0.783225
10:14:08,30-Sep-21,0.8845,0.885,0.78234025,0.783225
10:14:08,30-Sep-21,0.8895,0.884,0.79121025,0.781456
10:14:08,30-Sep-21,0.8895,0.884,0.79121025,0.781456
10:14:08,30-Sep-21,0.8895,0.884,0.79121025,0.781456
10:14:08,30-Sep-21,0.8895,0.884,0.79121025,0.781456
10:14:08,30-Sep-21,0.8895,0.884,0.79121025,0.781456
10:14:08,30-Sep-21,0.8995,0.884,0.80910025,0.781456
10:14:08,30-Sep-21,0.8995,0.884,0.80910025,0.781456
10:14:08,30-Sep-21,0.8995,0.884,0.80910025,0.781456
10:14:08,30-Sep-21,0.8995,0.884,0.80910025,0.781456
10:14:08,30-Sep-21,0.8995,0.883,0.80910025,0.779689
10:14:08,30-Sep-21,0.8995,0.883,0.80910025,0.779689
10:14:08,30-Sep-21,0.8995,0.883,0.80910025,0.779689
10:14:08,30-Sep-21,0.8995,0.883,0.80910025,0.779689
10:14:08,30-Sep-21,0.8895,0.883,0.79121025,0.779689
10:14:08,30-Sep-21,0.8895,0.883,0.79121025,0.779689
10:14:08,30-Sep-21,0.8895,0.883,0.79121025,0.779689
10:14:08,30-Sep-21,0.8845,0.883,0.78234025,0.779689
10:14:08,30-Sep-21,0.8845,0.883,0.78234025,0.779689
10:14:08,30-Sep-21,0.8845,0.882,0.78234025,0.777924
10:14:08,30-Sep-21,0.8845,0.882,0.78234025,0.777924
10:14:08,30-Sep-21,0.875,0.882,0.765625,0.777924
10:14:08,30-Sep-21,0.875,0.882,0.765625,0.777924
10:14:08,30-Sep-21,0.875,0.882,0.765625,0.777924
10:14:08,30-Sep-21,0.875,0.882,0.765625,0.777924
10:14:08,30-Sep-21,0.875,0.882,0.765625,0.777924
10:14:08,30-Sep-21,0.875,0.882,0.765625,0.777924
10:14:08,30-Sep-21,0.87,0.882,0.7569,0.777924
10:14:08,30-Sep-21,0.87,0.882,0.7569,0.777924
10:14:08,30-Sep-21,0.87,0.882,0.7569,0.777924
10:14:08,30-Sep-21,0.87,0.882,0.7569,0.777924
10:14:08,30-Sep-21,0.87,0.882,0.7569,0.777924
10:14:08,30-Sep-21,0.87,0.883,0.7569,0.779689
10:14:08,30-Sep-21,0.87,0.883,0.7569,0.779689
10:14:08,30-Sep-21,0.87,0.883,0.7569,0.779689
10:14:08,30-Sep-21,0.87,0.883,0.7569,0.779689
10:14:08,30-Sep-21,0.87,0.883,0.7569,0.779689
10:14:08,30-Sep-21,0.875,0.884,0.765625,0.781456
10:14:08,30-Sep-21,0.875,0.884,0.765625,0.781456
10:14:08,30-Sep-21,0.875,0.884,0.765625,0.781456
10:14:08,30-Sep-21,0.875,0.884,0.765625,0.781456
10:14:08,30-Sep-21,0.8945,0.885,0.80013025,0.783225
10:14:08,30-Sep-21,0.8945,0.885,0.80013025,0.783225
10:14:08,30-Sep-21,0.8945,0.885,0.80013025,0.783225
10:14:08,30-Sep-21,0.8945,0.885,0.80013025,0.783225
10:14:08,30-Sep-21,0.8945,0.886,0.80013025,0.784996
10:14:08,30-Sep-21,0.8945,0.886,0.80013025,0.784996
10:14:08,30-Sep-21,0.8995,0.886,0.80910025,0.784996
10:14:08,30-Sep-21,0.8995,0.886,0.80910025,0.784996
10:14:08,30-Sep-21,0.8995,0.886,0.80910025,0.784996
10:14:08,30-Sep-21,0.8995,0.886,0.80910025,0.784996
10:14:08,30-Sep-21,0.8995,0.886,0.80910025,0.784996
10:14:08,30-Sep-21,0.8995,0.886,0.80910025,0.784996
10:14:08,30-Sep-21,0.8995,0.887,0.80910025,0.786769
10:14:08,30-Sep-21,0.8995,0.887,0.80910025,0.786769
10:14:08,30-Sep-21,0.8995,0.887,0.80910025,0.786769
10:14:08,30-Sep-21,0.8895,0.887,0.79121025,0.786769
10:14:08,30-Sep-21,0.8895,0.886,0.79121025,0.784996
10:14:08,30-Sep-21,0.8895,0.886,0.79121025,0.784996
10:14:08,30-Sep-21,0.8895,0.886,0.79121025,0.784996
10:14:08,30-Sep-21,0.8895,0.886,0.79121025,0.784996
10:14:08,30-Sep-21,0.8895,0.886,0.79121025,0.784996
10:14:08,30-Sep-21,0.8895,0.886,0.79121025,0.784996
10:14:08,30-Sep-21,0.8845,0.886,0.78234025,0.784996
10:14:08,30-Sep-21,0.8845,0.886,0.78234025,0.784996
10:14:08,30-Sep-21,0.8845,0.885,0.78234025,0.783225
10:14:08,30-Sep-21,0.875,0.885,0.765625,0.783225
10:14:08,30-Sep-21,0.875,0.885,0.765625,0.783225
10:14:08,30-Sep-21,0.875,0.885,0.765625,0.783225
10:14:08,30-Sep-21,0.875,0.885,0.765625,0.783225
10:14:08,30-Sep-21,0.87,0.884,0.7569,0.781456
10:14:08,30-Sep-21,0.87,0.884,0.7569,0.781456
10:14:08,30-Sep-21,0.87,0.884,0.7569,0.781456
10:14:08,30-Sep-21,0.87,0.884,0.7569,0.781456
10:14:08,30-Sep-21,0.87,0.884,0.7569,0.781456
10:14:08,30-Sep-21,0.87,0.884,0.7569,0.781456
10:14:08,30-Sep-21,0.87,0.884,0.7569,0.781456
10:14:08,30-Sep-21,0.875,0.883,0.765625,0.779689
10:14:08,30-Sep-21,0.875,0.883,0.765625,0.779689
10:14:08,30-Sep-21,0.875,0.883,0.765625,0.779689
10:14:08,30-Sep-21,0.875,0.883,0.765625,0.779689
10:14:08,30-Sep-21,0.875,0.883,0.765625,0.779689
10:14:08,30-Sep-21,0.88,0.883,0.7744,0.779689
10:14:08,30-Sep-21,0.88,0.883,0.7744,0.779689
10:14:08,30-Sep-21,0.88,0.883,0.7744,0.779689
10:14:08,30-Sep-21,0.8945,0.882,0.80013025,0.777924
10:14:08,30-Sep-21,0.8945,0.882,0.80013025,0.777924
10:14:08,30-Sep-21,0.8945,0.882,0.80013025,0.777924
10:14:08,30-Sep-21,0.8995,0.882,0.80910025,0.777924
10:14:08,30-Sep-21,0.8995,0.882,0.80910025,0.777924
10:14:08,30-Sep-21,0.8995,0.881,0.80910025,0.776161
10:14:08,30-Sep-21,0.8945,0.881,0.80013025,0.776161
10:14:08,30-Sep-21,0.8945,0.881,0.80013025,0.776161
10:14:08,30-Sep-21,0.8945,0.881,0.80013025,0.776161
10:14:08,30-Sep-21,0.8945,0.88,0.80013025,0.7744
10:14:08,30-Sep-21,0.8945,0.88,0.80013025,0.7744
10:14:08,30-Sep-21,0.8945,0.88,0.80013025,0.7744
10:14:08,30-Sep-21,0.8945,0.88,0.80013025,0.7744
10:14:08,30-Sep-21,0.8895,0.879,0.79121025,0.772641
10:14:08,30-Sep-21,0.8895,0.879,0.79121025,0.772641
10:14:08,30-Sep-21,0.8895,0.879,0.79121025,0.772641
10:14:08,30-Sep-21,0.88,0.879,0.7744,0.772641
10:14:08,30-Sep-21,0.88,0.878,0.7744,0.770884
10:14:08,30-Sep-21,0.88,0.878,0.7744,0.770884
10:14:08,30-Sep-21,0.88,0.878,0.7744,0.770884
10:14:08,30-Sep-21,0.87,0.878,0.7569,0.770884
10:14:08,30-Sep-21,0.87,0.878,0.7569,0.770884
10:14:08,30-Sep-21,0.87,0.878,0.7569,0.770884
10:14:08,30-Sep-21,0.87,0.877,0.7569,0.769129
10:14:08,30-Sep-21,0.87,0.877,0.7569,0.769129
10:14:08,30-Sep-21,0.87,0.877,0.7569,0.769129
10:14:08,30-Sep-21,0.87,0.877,0.7569,0.769129
10:14:08,30-Sep-21,0.87,0.878,0.7569,0.770884
10:14:08,30-Sep-21,0.87,0.878,0.7569,0.770884
10:14:08,30-Sep-21,0.87,0.878,0.7569,0.770884
10:14:08,30-Sep-21,0.87,0.878,0.7569,0.770884
10:14:08,30-Sep-21,0.87,0.878,0.7569,0.770884
10:14:09,30-Sep-21,0.87,0.879,0.7569,0.772641
10:14:09,30-Sep-21,0.86,0.879,0.7396,0.772641
10:14:09,30-Sep-21,0.86,0.88,0.7396,0.7744
10:14:09,30-Sep-21,0.86,0.88,0.7396,0.7744
10:14:09,30-Sep-21,0.86,0.88,0.7396,0.7744
10:14:09,30-Sep-21,0.86,0.881,0.7396,0.776161
10:14:09,30-Sep-21,0.87,0.881,0.7569,0.776161
10:14:09,30-Sep-21,0.87,0.882,0.7569,0.777924
10:14:09,30-Sep-21,0.875,0.882,0.765625,0.777924
10:14:09,30-Sep-21,0.875,0.883,0.765625,0.779689
10:14:09,30-Sep-21,0.8945,0.883,0.80013025,0.779689
10:14:09,30-Sep-21,0.8945,0.884,0.80013025,0.781456
10:14:09,30-Sep-21,0.8945,0.884,0.80013025,0.781456
10:14:09,30-Sep-21,0.8945,0.885,0.80013025,0.783225
10:14:09,30-Sep-21,0.8945,0.885,0.80013025,0.783225
10:14:09,30-Sep-21,0.8895,0.885,0.79121025,0.783225
10:14:09,30-Sep-21,0.8895,0.886,0.79121025,0.784996
10:14:09,30-Sep-21,0.8895,0.886,0.79121025,0.784996
10:14:09,30-Sep-21,0.8895,0.886,0.79121025,0.784996
10:14:09,30-Sep-21,0.875,0.885,0.765625,0.783225
10:14:09,30-Sep-21,0.875,0.885,0.765625,0.783225
10:14:09,30-Sep-21,0.875,0.885,0.765625,0.783225
10:14:09,30-Sep-21,0.875,0.884,0.765625,0.781456
10:14:09,30-Sep-21,0.87,0.884,0.7569,0.781456
10:14:09,30-Sep-21,0.87,0.883,0.7569,0.779689
10:14:09,30-Sep-21,0.87,0.882,0.7569,0.777924
10:14:09,30-Sep-21,0.87,0.88,0.7569,0.7744
10:14:09,30-Sep-21,0.865,0.879,0.748225,0.772641
10:14:09,30-Sep-21,0.865,0.877,0.748225,0.769129
10:14:09,30-Sep-21,0.865,0.876,0.748225,0.767376
10:14:09,30-Sep-21,0.865,0.874,0.748225,0.763876
10:14:09,30-Sep-21,0.88,0.871,0.7744,0.758641
10:14:09,30-Sep-21,0.88,0.869,0.7744,0.755161
10:14:09,30-Sep-21,0.88,0.866,0.7744,0.749956
10:14:09,30-Sep-21,0.8845,0.863,0.78234025,0.744769
10:14:09,30-Sep-21,0.8845,0.86,0.78234025,0.7396
10:14:09,30-Sep-21,0.8895,0.856,0.79121025,0.732736
10:14:09,30-Sep-21,0.8895,0.853,0.79121025,0.727609
10:14:09,30-Sep-21,0.8845,0.849,0.78234025,0.720801
10:14:09,30-Sep-21,0.8845,0.844,0.78234025,0.712336
10:14:09,30-Sep-21,0.87,0.84,0.7569,0.7056
10:14:09,30-Sep-21,0.87,0.835,0.7569,0.697225
10:14:09,30-Sep-21,0.8555,0.83,0.73188025,0.6889
10:14:09,30-Sep-21,0.8555,0.825,0.73188025,0.680625
10:14:09,30-Sep-21,0.8555,0.82,0.73188025,0.6724
10:14:09,30-Sep-21,0.8555,0.815,0.73188025,0.664225
10:14:09,30-Sep-21,0.8405,0.809,0.70644025,0.654481
10:14:09,30-Sep-21,0.8405,0.803,0.70644025,0.644809
10:14:09,30-Sep-21,0.816,0.797,0.665856,0.635209
10:14:09,30-Sep-21,0.816,0.791,0.665856,0.625681
10:14:09,30-Sep-21,0.816,0.785,0.665856,0.616225
10:14:09,30-Sep-21,0.777,0.779,0.603729,0.606841
10:14:09,30-Sep-21,0.777,0.772,0.603729,0.595984
10:14:09,30-Sep-21,0.7135,0.766,0.50908225,0.586756
10:14:09,30-Sep-21,0.7135,0.76,0.50908225,0.5776
10:14:09,30-Sep-21,0.6695,0.753,0.44823025,0.567009
10:14:09,30-Sep-21,0.6695,0.747,0.44823025,0.558009
10:14:09,30-Sep-21,0.6695,0.74,0.44823025,0.5476
10:14:09,30-Sep-21,0.6845,0.734,0.46854025,0.538756
10:14:09,30-Sep-21,0.6845,0.727,0.46854025,0.528529
10:14:09,30-Sep-21,0.6845,0.721,0.46854025,0.519841
10:14:09,30-Sep-21,0.694,0.715,0.481636,0.511225
10:14:09,30-Sep-21,0.694,0.709,0.481636,0.502681
10:14:09,30-Sep-21,0.699,0.703,0.488601,0.494209
10:14:09,30-Sep-21,0.694,0.697,0.481636,0.485809
10:14:09,30-Sep-21,0.694,0.691,0.481636,0.477481
10:14:09,30-Sep-21,0.694,0.685,0.481636,0.469225
10:14:09,30-Sep-21,0.694,0.679,0.481636,0.461041
10:14:09,30-Sep-21,0.6795,0.674,0.46172025,0.454276
10:14:09,30-Sep-21,0.6795,0.668,0.46172025,0.446224
10:14:09,30-Sep-21,0.66,0.663,0.4356,0.439569
10:14:09,30-Sep-21,0.66,0.657,0.4356,0.431649
10:14:09,30-Sep-21,0.645,0.652,0.416025,0.425104
10:14:09,30-Sep-21,0.645,0.647,0.416025,0.418609
10:14:09,30-Sep-21,0.6355,0.642,0.40386025,0.412164
10:14:09,30-Sep-21,0.6355,0.638,0.40386025,0.407044
10:14:09,30-Sep-21,0.6355,0.633,0.40386025,0.400689
10:14:09,30-Sep-21,0.6355,0.628,0.40386025,0.394384
10:14:09,30-Sep-21,0.6355,0.624,0.40386025,0.389376
10:14:09,30-Sep-21,0.6305,0.62,0.39753025,0.3844
10:14:09,30-Sep-21,0.6305,0.615,0.39753025,0.378225
10:14:09,30-Sep-21,0.6255,0.611,0.39125025,0.373321
10:14:09,30-Sep-21,0.6255,0.607,0.39125025,0.368449
10:14:09,30-Sep-21,0.611,0.604,0.373321,0.364816
10:14:09,30-Sep-21,0.611,0.6,0.373321,0.36
10:14:09,30-Sep-21,0.606,0.596,0.367236,0.355216
10:14:09,30-Sep-21,0.5965,0.593,0.35581225,0.351649
10:14:09,30-Sep-21,0.5965,0.589,0.35581225,0.346921
10:14:09,30-Sep-21,0.5965,0.586,0.35581225,0.343396
10:14:09,30-Sep-21,0.5815,0.583,0.33814225,0.339889
10:14:09,30-Sep-21,0.5815,0.58,0.33814225,0.3364
10:14:09,30-Sep-21,0.5815,0.577,0.33814225,0.332929
10:14:09,30-Sep-21,0.572,0.574,0.327184,0.329476
10:14:09,30-Sep-21,0.562,0.572,0.315844,0.327184
10:14:09,30-Sep-21,0.562,0.569,0.315844,0.323761
10:14:09,30-Sep-21,0.562,0.566,0.315844,0.320356
10:14:09,30-Sep-21,0.557,0.564,0.310249,0.318096
10:14:09,30-Sep-21,0.5475,0.562,0.29975625,0.315844
10:14:09,30-Sep-21,0.5475,0.56,0.29975625,0.3136
10:14:09,30-Sep-21,0.5475,0.558,0.29975625,0.311364
10:14:09,30-Sep-21,0.5525,0.556,0.30525625,0.309136
10:14:09,30-Sep-21,0.5525,0.554,0.30525625,0.306916
10:14:09,30-Sep-21,0.5525,0.552,0.30525625,0.304704
10:14:09,30-Sep-21,0.5525,0.55,0.30525625,0.3025
10:14:09,30-Sep-21,0.557,0.549,0.310249,0.301401
10:14:09,30-Sep-21,0.557,0.547,0.310249,0.299209
10:14:09,30-Sep-21,0.557,0.546,0.310249,0.298116
10:14:09,30-Sep-21,0.557,0.545,0.310249,0.297025
10:14:09,30-Sep-21,0.557,0.544,0.310249,0.295936
10:14:09,30-Sep-21,0.5475,0.543,0.29975625,0.294849
10:14:09,30-Sep-21,0.5425,0.542,0.29430625,0.293764
10:14:09,30-Sep-21,0.5425,0.541,0.29430625,0.292681
10:14:09,30-Sep-21,0.5425,0.54,0.29430625,0.2916
10:14:09,30-Sep-21,0.5375,0.539,0.28890625,0.290521
10:14:09,30-Sep-21,0.528,0.538,0.278784,0.289444
10:14:10,30-Sep-21,0.528,0.538,0.278784,0.289444
10:14:10,30-Sep-21,0.523,0.537,0.273529,0.288369
10:14:10,30-Sep-21,0.523,0.537,0.273529,0.288369
10:14:10,30-Sep-21,0.523,0.537,0.273529,0.288369
10:14:10,30-Sep-21,0.523,0.536,0.273529,0.287296
10:14:10,30-Sep-21,0.5325,0.536,0.28355625,0.287296
10:14:10,30-Sep-21,0.5325,0.536,0.28355625,0.287296
10:14:10,30-Sep-21,0.5325,0.536,0.28355625,0.287296
10:14:10,30-Sep-21,0.5375,0.536,0.28890625,0.287296
10:14:10,30-Sep-21,0.5375,0.536,0.28890625,0.287296
10:14:10,30-Sep-21,0.5425,0.536,0.29430625,0.287296
10:14:10,30-Sep-21,0.5425,0.536,0.29430625,0.287296
10:14:10,30-Sep-21,0.5425,0.536,0.29430625,0.287296
10:14:10,30-Sep-21,0.5425,0.536,0.29430625,0.287296
10:14:10,30-Sep-21,0.5425,0.536,0.29430625,0.287296
10:14:10,30-Sep-21,0.5425,0.536,0.29430625,0.287296
10:14:10,30-Sep-21,0.5425,0.536,0.29430625,0.287296
10:14:10,30-Sep-21,0.5425,0.536,0.29430625,0.287296
10:14:10,30-Sep-21,0.5375,0.537,0.28890625,0.288369
10:14:10,30-Sep-21,0.5375,0.537,0.28890625,0.288369
10:14:10,30-Sep-21,0.5375,0.537,0.28890625,0.288369
10:14:10,30-Sep-21,0.5375,0.537,0.28890625,0.288369
10:14:10,30-Sep-21,0.5325,0.538,0.28355625,0.289444
10:14:10,30-Sep-21,0.5325,0.538,0.28355625,0.289444
10:14:10,30-Sep-21,0.5325,0.538,0.28355625,0.289444
10:14:10,30-Sep-21,0.5325,0.538,0.28355625,0.289444
10:14:10,30-Sep-21,0.5325,0.539,0.28355625,0.290521
10:14:10,30-Sep-21,0.5325,0.539,0.28355625,0.290521
10:14:10,30-Sep-21,0.5325,0.539,0.28355625,0.290521
10:14:10,30-Sep-21,0.5375,0.539,0.28890625,0.290521
10:14:10,30-Sep-21,0.5375,0.539,0.28890625,0.290521
10:14:10,30-Sep-21,0.5375,0.539,0.28890625,0.290521
10:14:10,30-Sep-21,0.5375,0.54,0.28890625,0.2916
10:14:10,30-Sep-21,0.5525,0.54,0.30525625,0.2916
10:14:10,30-Sep-21,0.5525,0.54,0.30525625,0.2916
10:14:10,30-Sep-21,0.5525,0.54,0.30525625,0.2916
10:14:10,30-Sep-21,0.5525,0.54,0.30525625,0.2916
10:14:10,30-Sep-21,0.5525,0.54,0.30525625,0.2916
10:14:10,30-Sep-21,0.5525,0.54,0.30525625,0.2916
10:14:10,30-Sep-21,0.5525,0.54,0.30525625,0.2916
10:14:10,30-Sep-21,0.5425,0.54,0.29430625,0.2916
10:14:10,30-Sep-21,0.5375,0.539,0.28890625,0.290521
10:14:10,30-Sep-21,0.5375,0.539,0.28890625,0.290521
10:14:10,30-Sep-21,0.5375,0.539,0.28890625,0.290521
10:14:10,30-Sep-21,0.5375,0.539,0.28890625,0.290521
10:14:10,30-Sep-21,0.5375,0.539,0.28890625,0.290521
10:14:10,30-Sep-21,0.523,0.539,0.273529,0.290521
10:14:10,30-Sep-21,0.523,0.538,0.273529,0.289444
10:14:10,30-Sep-21,0.523,0.538,0.273529,0.289444
10:14:10,30-Sep-21,0.528,0.538,0.278784,0.289444
10:14:10,30-Sep-21,0.5325,0.538,0.28355625,0.289444
10:14:10,30-Sep-21,0.5325,0.537,0.28355625,0.288369
10:14:10,30-Sep-21,0.5425,0.537,0.29430625,0.288369
10:14:10,30-Sep-21,0.5425,0.537,0.29430625,0.288369
10:14:10,30-Sep-21,0.5425,0.536,0.29430625,0.287296
10:14:10,30-Sep-21,0.5425,0.536,0.29430625,0.287296
10:14:10,30-Sep-21,0.5425,0.536,0.29430625,0.287296
10:14:10,30-Sep-21,0.5425,0.535,0.29430625,0.286225
10:14:10,30-Sep-21,0.5425,0.535,0.29430625,0.286225
10:14:10,30-Sep-21,0.5425,0.535,0.29430625,0.286225
10:14:10,30-Sep-21,0.5375,0.534,0.28890625,0.285156
10:14:10,30-Sep-21,0.5375,0.534,0.28890625,0.285156
10:14:10,30-Sep-21,0.5375,0.534,0.28890625,0.285156
10:14:10,30-Sep-21,0.5375,0.533,0.28890625,0.284089
10:14:10,30-Sep-21,0.5325,0.533,0.28355625,0.284089
10:14:10,30-Sep-21,0.5325,0.533,0.28355625,0.284089
10:14:10,30-Sep-21,0.5325,0.532,0.28355625,0.283024
10:14:10,30-Sep-21,0.5325,0.532,0.28355625,0.283024
10:14:10,30-Sep-21,0.523,0.532,0.273529,0.283024
10:14:10,30-Sep-21,0.523,0.532,0.273529,0.283024
10:14:10,30-Sep-21,0.523,0.531,0.273529,0.281961
10:14:10,30-Sep-21,0.518,0.531,0.268324,0.281961
10:14:10,30-Sep-21,0.518,0.531,0.268324,0.281961
10:14:10,30-Sep-21,0.518,0.531,0.268324,0.281961
10:14:10,30-Sep-21,0.518,0.531,0.268324,0.281961
10:14:10,30-Sep-21,0.518,0.531,0.268324,0.281961
10:14:10,30-Sep-21,0.528,0.53,0.278784,0.2809
10:14:10,30-Sep-21,0.528,0.53,0.278784,0.2809
10:14:10,30-Sep-21,0.528,0.53,0.278784,0.2809
10:14:10,30-Sep-21,0.528,0.53,0.278784,0.2809
10:14:10,30-Sep-21,0.528,0.53,0.278784,0.2809
10:14:10,30-Sep-21,0.528,0.53,0.278784,0.2809
10:14:10,30-Sep-21,0.528,0.53,0.278784,0.2809
10:14:10,30-Sep-21,0.528,0.53,0.278784,0.2809
10:14:10,30-Sep-21,0.5375,0.53,0.28890625,0.2809
10:14:10,30-Sep-21,0.5375,0.53,0.28890625,0.2809
10:14:10,30-Sep-21,0.5375,0.53,0.28890625,0.2809
10:14:10,30-Sep-21,0.5375,0.53,0.28890625,0.2809
10:14:10,30-Sep-21,0.5375,0.53,0.28890625,0.2809
10:14:10,30-Sep-21,0.5425,0.53,0.29430625,0.2809
10:14:10,30-Sep-21,0.5425,0.53,0.29430625,0.2809
10:14:10,30-Sep-21,0.5425,0.53,0.29430625,0.2809
10:14:10,30-Sep-21,0.5375,0.53,0.28890625,0.2809
10:14:10,30-Sep-21,0.5375,0.53,0.28890625,0.2809
10:14:10,30-Sep-21,0.5375,0.53,0.28890625,0.2809
10:14:10,30-Sep-21,0.5325,0.53,0.28355625,0.2809
10:14:10,30-Sep-21,0.5325,0.53,0.28355625,0.2809
10:14:10,30-Sep-21,0.528,0.53,0.278784,0.2809
10:14:10,30-Sep-21,0.528,0.53,0.278784,0.2809
10:14:10,30-Sep-21,0.523,0.53,0.273529,0.2809
10:14:10,30-Sep-21,0.523,0.53,0.273529,0.2809
10:14:10,30-Sep-21,0.523,0.53,0.273529,0.2809
10:14:10,30-Sep-21,0.523,0.53,0.273529,0.2809
10:14:10,30-Sep-21,0.523,0.53,0.273529,0.2809
10:14:10,30-Sep-21,0.523,0.529,0.273529,0.279841
10:14:10,30-Sep-21,0.523,0.529,0.273529,0.279841
10:14:10,30-Sep-21,0.523,0.529,0.273529,0.279841
10:14:10,30-Sep-21,0.523,0.529,0.273529,0.279841
10:14:10,30-Sep-21,0.523,0.529,0.273529,0.279841
10:14:10,30-Sep-21,0.523,0.529,0.273529,0.279841
10:14:10,30-Sep-21,0.5325,0.529,0.28355625,0.279841
10:14:10,30-Sep-21,0.5325,0.529,0.28355625,0.279841
10:14:10,30-Sep-21,0.5325,0.529,0.28355625,0.279841
10:14:10,30-Sep-21,0.5325,0.529,0.28355625,0.279841
10:14:10,30-Sep-21,0.5325,0.529,0.28355625,0.279841
10:14:10,30-Sep-21,0.5325,0.529,0.28355625,0.279841
10:14:10,30-Sep-21,0.5325,0.529,0.28355625,0.279841
10:14:10,30-Sep-21,0.5325,0.529,0.28355625,0.279841
10:14:10,30-Sep-21,0.5325,0.529,0.28355625,0.279841
10:14:10,30-Sep-21,0.5375,0.528,0.28890625,0.278784
10:14:10,30-Sep-21,0.5375,0.528,0.28890625,0.278784
10:14:10,30-Sep-21,0.5375,0.528,0.28890625,0.278784
10:14:10,30-Sep-21,0.5375,0.528,0.28890625,0.278784
10:14:10,30-Sep-21,0.5375,0.528,0.28890625,0.278784
10:14:10,30-Sep-21,0.5325,0.528,0.28355625,0.278784
10:14:10,30-Sep-21,0.5325,0.528,0.28355625,0.278784
10:14:10,30-Sep-21,0.528,0.528,0.278784,0.278784
10:14:10,30-Sep-21,0.528,0.528,0.278784,0.278784
10:14:10,30-Sep-21,0.528,0.528,0.278784,0.278784
10:14:10,30-Sep-21,0.523,0.528,0.273529,0.278784
10:14:10,30-Sep-21,0.523,0.528,0.273529,0.278784
10:14:10,30-Sep-21,0.523,0.528,0.273529,0.278784
10:14:10,30-Sep-21,0.518,0.528,0.268324,0.278784
10:14:10,30-Sep-21,0.518,0.528,0.268324,0.278784
10:14:11,30-Sep-21,0.518,0.528,0.268324,0.278784
10:14:11,30-Sep-21,0.518,0.529,0.268324,0.279841
10:14:11,30-Sep-21,0.518,0.529,0.268324,0.279841
10:14:11,30-Sep-21,0.518,0.529,0.268324,0.279841
10:14:11,30-Sep-21,0.518,0.529,0.268324,0.279841
10:14:11,30-Sep-21,0.518,0.529,0.268324,0.279841
10:14:11,30-Sep-21,0.518,0.529,0.268324,0.279841
10:14:11,30-Sep-21,0.523,0.529,0.273529,0.279841
10:14:11,30-Sep-21,0.523,0.53,0.273529,0.2809
10:14:11,30-Sep-21,0.523,0.53,0.273529,0.2809
10:14:11,30-Sep-21,0.5325,0.53,0.28355625,0.2809
10:14:11,30-Sep-21,0.5325,0.53,0.28355625,0.2809
10:14:11,30-Sep-21,0.5425,0.53,0.29430625,0.2809
10:14:11,30-Sep-21,0.5425,0.531,0.29430625,0.281961
10:14:11,30-Sep-21,0.5425,0.531,0.29430625,0.281961
10:14:11,30-Sep-21,0.5425,0.531,0.29430625,0.281961
10:14:11,30-Sep-21,0.5425,0.531,0.29430625,0.281961
10:14:11,30-Sep-21,0.5425,0.531,0.29430625,0.281961
10:14:11,30-Sep-21,0.5425,0.531,0.29430625,0.281961
10:14:11,30-Sep-21,0.5425,0.532,0.29430625,0.283024
10:14:11,30-Sep-21,0.5425,0.532,0.29430625,0.283024
10:14:11,30-Sep-21,0.5325,0.532,0.28355625,0.283024
10:14:11,30-Sep-21,0.5325,0.532,0.28355625,0.283024
10:14:11,30-Sep-21,0.5325,0.532,0.28355625,0.283024
10:14:11,30-Sep-21,0.5325,0.532,0.28355625,0.283024
10:14:11,30-Sep-21,0.5325,0.532,0.28355625,0.283024
10:14:11,30-Sep-21,0.5325,0.532,0.28355625,0.283024
10:14:11,30-Sep-21,0.523,0.532,0.273529,0.283024
10:14:11,30-Sep-21,0.523,0.532,0.273529,0.283024
10:14:11,30-Sep-21,0.523,0.532,0.273529,0.283024
10:14:11,30-Sep-21,0.523,0.532,0.273529,0.283024
10:14:11,30-Sep-21,0.518,0.532,0.268324,0.283024
10:14:11,30-Sep-21,0.528,0.532,0.278784,0.283024
10:14:11,30-Sep-21,0.528,0.532,0.278784,0.283024
10:14:11,30-Sep-21,0.528,0.532,0.278784,0.283024
10:14:11,30-Sep-21,0.5325,0.531,0.28355625,0.281961
10:14:11,30-Sep-21,0.5325,0.531,0.28355625,0.281961
10:14:11,30-Sep-21,0.5375,0.531,0.28890625,0.281961
10:14:11,30-Sep-21,0.5375,0.531,0.28890625,0.281961
10:14:11,30-Sep-21,0.5375,0.531,0.28890625,0.281961
10:14:11,30-Sep-21,0.5375,0.53,0.28890625,0.2809
10:14:11,30-Sep-21,0.5375,0.53,0.28890625,0.2809
10:14:11,30-Sep-21,0.5325,0.53,0.28355625,0.2809
10:14:11,30-Sep-21,0.5325,0.529,0.28355625,0.279841
10:14:11,30-Sep-21,0.5325,0.529,0.28355625,0.279841
10:14:11,30-Sep-21,0.5325,0.529,0.28355625,0.279841
10:14:11,30-Sep-21,0.5325,0.528,0.28355625,0.278784
10:14:11,30-Sep-21,0.5325,0.528,0.28355625,0.278784
10:14:11,30-Sep-21,0.5325,0.528,0.28355625,0.278784
10:14:11,30-Sep-21,0.5325,0.527,0.28355625,0.277729
10:14:11,30-Sep-21,0.523,0.527,0.273529,0.277729
10:14:11,30-Sep-21,0.523,0.526,0.273529,0.276676
10:14:11,30-Sep-21,0.518,0.526,0.268324,0.276676
10:14:11,30-Sep-21,0.518,0.525,0.268324,0.275625
10:14:11,30-Sep-21,0.518,0.525,0.268324,0.275625
10:14:11,30-Sep-21,0.518,0.525,0.268324,0.275625
10:14:11,30-Sep-21,0.518,0.524,0.268324,0.274576
10:14:11,30-Sep-21,0.513,0.524,0.263169,0.274576
10:14:11,30-Sep-21,0.513,0.523,0.263169,0.273529
10:14:11,30-Sep-21,0.513,0.523,0.263169,0.273529
10:14:11,30-Sep-21,0.513,0.522,0.263169,0.272484
10:14:11,30-Sep-21,0.523,0.522,0.273529,0.272484
10:14:11,30-Sep-21,0.523,0.521,0.273529,0.271441
10:14:11,30-Sep-21,0.528,0.521,0.278784,0.271441
10:14:11,30-Sep-21,0.528,0.52,0.278784,0.2704
10:14:11,30-Sep-21,0.528,0.52,0.278784,0.2704
10:14:11,30-Sep-21,0.528,0.519,0.278784,0.269361
10:14:11,30-Sep-21,0.528,0.519,0.278784,0.269361
10:14:11,30-Sep-21,0.528,0.518,0.278784,0.268324
10:14:11,30-Sep-21,0.528,0.518,0.278784,0.268324
10:14:11,30-Sep-21,0.523,0.517,0.273529,0.267289
10:14:11,30-Sep-21,0.523,0.517,0.273529,0.267289
10:14:11,30-Sep-21,0.518,0.516,0.268324,0.266256
10:14:11,30-Sep-21,0.518,0.516,0.268324,0.266256
10:14:11,30-Sep-21,0.513,0.515,0.263169,0.265225
10:14:11,30-Sep-21,0.513,0.515,0.263169,0.265225
10:14:11,30-Sep-21,0.5085,0.515,0.25857225,0.265225
10:14:11,30-Sep-21,0.5085,0.514,0.25857225,0.264196
10:14:11,30-Sep-21,0.5085,0.514,0.25857225,0.264196
10:14:11,30-Sep-21,0.5085,0.514,0.25857225,0.264196
10:14:11,30-Sep-21,0.5035,0.513,0.25351225,0.263169
10:14:11,30-Sep-21,0.5035,0.513,0.25351225,0.263169
10:14:11,30-Sep-21,0.5035,0.513,0.25351225,0.263169
10:14:11,30-Sep-21,0.5035,0.512,0.25351225,0.262144
10:14:11,30-Sep-21,0.5035,0.512,0.25351225,0.262144
10:14:11,30-Sep-21,0.513,0.512,0.263169,0.262144
10:14:11,30-Sep-21,0.518,0.512,0.268324,0.262144
10:14:11,30-Sep-21,0.518,0.511,0.268324,0.261121
10:14:11,30-Sep-21,0.523,0.511,0.273529,0.261121
10:14:11,30-Sep-21,0.523,0.511,0.273529,0.261121
10:14:11,30-Sep-21,0.523,0.511,0.273529,0.261121
10:14:11,30-Sep-21,0.518,0.511,0.268324,0.261121
10:14:11,30-Sep-21,0.513,0.511,0.263169,0.261121
10:14:11,30-Sep-21,0.513,0.511,0.263169,0.261121
10:14:11,30-Sep-21,0.513,0.51,0.263169,0.2601
10:14:11,30-Sep-21,0.5085,0.51,0.25857225,0.2601
10:14:11,30-Sep-21,0.5085,0.51,0.25857225,0.2601
10:14:11,30-Sep-21,0.5085,0.51,0.25857225,0.2601
10:14:11,30-Sep-21,0.5085,0.511,0.25857225,0.261121
10:14:11,30-Sep-21,0.4985,0.511,0.24850225,0.261121
10:14:11,30-Sep-21,0.4985,0.511,0.24850225,0.261121
10:14:11,30-Sep-21,0.4985,0.511,0.24850225,0.261121
10:14:11,30-Sep-21,0.5035,0.511,0.25351225,0.261121
10:14:11,30-Sep-21,0.5035,0.511,0.25351225,0.261121
10:14:11,30-Sep-21,0.5035,0.511,0.25351225,0.261121
10:14:11,30-Sep-21,0.5035,0.511,0.25351225,0.261121
10:14:11,30-Sep-21,0.5085,0.512,0.25857225,0.262144
10:14:11,30-Sep-21,0.5085,0.512,0.25857225,0.262144
10:14:11,30-Sep-21,0.518,0.512,0.268324,0.262144
10:14:11,30-Sep-21,0.518,0.512,0.268324,0.262144
10:14:11,30-Sep-21,0.523,0.512,0.273529,0.262144
10:14:11,30-Sep-21,0.523,0.513,0.273529,0.263169
10:14:11,30-Sep-21,0.523,0.513,0.273529,0.263169
10:14:11,30-Sep-21,0.523,0.513,0.273529,0.263169
10:14:11,30-Sep-21,0.518,0.513,0.268324,0.263169
10:14:11,30-Sep-21,0.518,0.514,0.268324,0.264196
10:14:11,30-Sep-21,0.518,0.514,0.268324,0.264196
10:14:11,30-Sep-21,0.518,0.514,0.268324,0.264196
10:14:11,30-Sep-21,0.513,0.514,0.263169,0.264196
10:14:12,30-Sep-21,0.513,0.514,0.263169,0.264196
10:14:12,30-Sep-21,0.5085,0.515,0.25857225,0.265225
10:14:12,30-Sep-21,0.5035,0.515,0.25351225,0.265225
10:14:12,30-Sep-21,0.5035,0.515,0.25351225,0.265225
10:14:12,30-Sep-21,0.5035,0.515,0.25351225,0.265225
10:14:12,30-Sep-21,0.5035,0.515,0.25351225,0.265225
10:14:12,30-Sep-21,0.513,0.515,0.263169,0.265225
10:14:12,30-Sep-21,0.513,0.516,0.263169,0.266256
10:14:12,30-Sep-21,0.513,0.516,0.263169,0.266256
10:14:12,30-Sep-21,0.518,0.516,0.268324,0.266256
10:14:12,30-Sep-21,0.518,0.516,0.268324,0.266256
10:14:12,30-Sep-21,0.518,0.516,0.268324,0.266256
10:14:12,30-Sep-21,0.518,0.516,0.268324,0.266256
10:14:12,30-Sep-21,0.518,0.516,0.268324,0.266256
10:14:12,30-Sep-21,0.523,0.516,0.273529,0.266256
10:14:12,30-Sep-21,0.523,0.516,0.273529,0.266256
10:14:12,30-Sep-21,0.523,0.516,0.273529,0.266256
10:14:12,30-Sep-21,0.523,0.516,0.273529,0.266256
10:14:12,30-Sep-21,0.523,0.515,0.273529,0.265225
10:14:12,30-Sep-21,0.523,0.515,0.273529,0.265225
10:14:12,30-Sep-21,0.523,0.515,0.273529,0.265225
10:14:12,30-Sep-21,0.523,0.515,0.273529,0.265225
10:14:12,30-Sep-21,0.523,0.515,0.273529,0.265225
10:14:12,30-Sep-21,0.518,0.514,0.268324,0.264196
10:14:12,30-Sep-21,0.518,0.514,0.268324,0.264196
10:14:12,30-Sep-21,0.518,0.514,0.268324,0.264196
10:14:12,30-Sep-21,0.518,0.514,0.268324,0.264196
10:14:12,30-Sep-21,0.513,0.513,0.263169,0.263169
10:14:12,30-Sep-21,0.513,0.513,0.263169,0.263169
10:14:12,30-Sep-21,0.513,0.513,0.263169,0.263169
10:14:12,30-Sep-21,0.5085,0.512,0.25857225,0.262144
10:14:12,30-Sep-21,0.5085,0.512,0.25857225,0.262144
10:14:12,30-Sep-21,0.5035,0.512,0.25351225,0.262144
10:14:12,30-Sep-21,0.5035,0.511,0.25351225,0.261121
10:14:12,30-Sep-21,0.5035,0.511,0.25351225,0.261121
10:14:12,30-Sep-21,0.5035,0.511,0.25351225,0.261121
10:14:12,30-Sep-21,0.5035,0.511,0.25351225,0.261121
10:14:12,30-Sep-21,0.4985,0.51,0.24850225,0.2601
10:14:12,30-Sep-21,0.4985,0.51,0.24850225,0.2601
10:14:12,30-Sep-21,0.4985,0.51,0.24850225,0.2601
10:14:12,30-Sep-21,0.5085,0.51,0.25857225,0.2601
10:14:12,30-Sep-21,0.5085,0.509,0.25857225,0.259081
10:14:12,30-Sep-21,0.5085,0.509,0.25857225,0.259081
10:14:12,30-Sep-21,0.5085,0.509,0.25857225,0.259081
10:14:12,30-Sep-21,0.513,0.509,0.263169,0.259081
10:14:12,30-Sep-21,0.513,0.509,0.263169,0.259081
10:14:12,30-Sep-21,0.513,0.509,0.263169,0.259081
10:14:12,30-Sep-21,0.513,0.508,0.263169,0.258064
10:14:12,30-Sep-21,0.513,0.508,0.263169,0.258064
10:14:12,30-Sep-21,0.513,0.508,0.263169,0.258064
10:14:12,30-Sep-21,0.513,0.508,0.263169,0.258064
10:14:12,30-Sep-21,0.513,0.508,0.263169,0.258064
10:14:12,30-Sep-21,0.513,0.508,0.263169,0.258064
10:14:12,30-Sep-21,0.5085,0.508,0.25857225,0.258064
10:14:12,30-Sep-21,0.5085,0.508,0.25857225,0.258064
10:14:12,30-Sep-21,0.5085,0.508,0.25857225,0.258064
10:14:12,30-Sep-21,0.5085,0.508,0.25857225,0.258064
10:14:12,30-Sep-21,0.5085,0.509,0.25857225,0.259081
10:14:12,30-Sep-21,0.5085,0.509,0.25857225,0.259081
10:14:12,30-Sep-21,0.5085,0.509,0.25857225,0.259081
10:14:12,30-Sep-21,0.5035,0.509,0.25351225,0.259081
10:14:12,30-Sep-21,0.5035,0.509,0.25351225,0.259081
10:14:12,30-Sep-21,0.5035,0.51,0.25351225,0.2601
10:14:12,30-Sep-21,0.5035,0.51,0.25351225,0.2601
10:14:12,30-Sep-21,0.5035,0.51,0.25351225,0.2601
10:14:12,30-Sep-21,0.4985,0.51,0.24850225,0.2601
10:14:12,30-Sep-21,0.4985,0.511,0.24850225,0.261121
10:14:12,30-Sep-21,0.4985,0.511,0.24850225,0.261121
10:14:12,30-Sep-21,0.5035,0.511,0.25351225,0.261121
10:14:12,30-Sep-21,0.5035,0.512,0.25351225,0.262144
10:14:12,30-Sep-21,0.5085,0.512,0.25857225,0.262144
10:14:12,30-Sep-21,0.5085,0.512,0.25857225,0.262144
10:14:12,30-Sep-21,0.5085,0.513,0.25857225,0.263169
10:14:12,30-Sep-21,0.5085,0.513,0.25857225,0.263169
10:14:12,30-Sep-21,0.518,0.514,0.268324,0.264196
10:14:12,30-Sep-21,0.518,0.514,0.268324,0.264196
10:14:12,30-Sep-21,0.518,0.514,0.268324,0.264196
10:14:12,30-Sep-21,0.518,0.515,0.268324,0.265225
10:14:12,30-Sep-21,0.5375,0.515,0.28890625,0.265225
10:14:12,30-Sep-21,0.5375,0.516,0.28890625,0.266256
10:14:12,30-Sep-21,0.5375,0.516,0.28890625,0.266256
10:14:12,30-Sep-21,0.5425,0.517,0.29430625,0.267289
10:14:12,30-Sep-21,0.5425,0.517,0.29430625,0.267289
10:14:12,30-Sep-21,0.5425,0.518,0.29430625,0.268324
10:14:12,30-Sep-21,0.5425,0.518,0.29430625,0.268324
10:14:12,30-Sep-21,0.5425,0.519,0.29430625,0.269361
10:14:12,30-Sep-21,0.5425,0.52,0.29430625,0.2704
10:14:12,30-Sep-21,0.5325,0.52,0.28355625,0.2704
10:14:12,30-Sep-21,0.5325,0.521,0.28355625,0.271441
10:14:12,30-Sep-21,0.5325,0.522,0.28355625,0.272484
10:14:12,30-Sep-21,0.518,0.522,0.268324,0.272484
10:14:12,30-Sep-21,0.518,0.523,0.268324,0.273529
10:14:12,30-Sep-21,0.5085,0.524,0.25857225,0.274576
10:14:12,30-Sep-21,0.5085,0.525,0.25857225,0.275625
10:14:12,30-Sep-21,0.5085,0.526,0.25857225,0.276676
10:14:12,30-Sep-21,0.5085,0.527,0.25857225,0.277729
10:14:12,30-Sep-21,0.5085,0.529,0.25857225,0.279841
10:14:12,30-Sep-21,0.5085,0.53,0.25857225,0.2809
10:14:12,30-Sep-21,0.513,0.531,0.263169,0.281961
10:14:12,30-Sep-21,0.523,0.533,0.273529,0.284089
10:14:12,30-Sep-21,0.523,0.534,0.273529,0.285156
10:14:12,30-Sep-21,0.528,0.536,0.278784,0.287296
10:14:12,30-Sep-21,0.5325,0.538,0.28355625,0.289444
10:14:12,30-Sep-21,0.5325,0.54,0.28355625,0.2916
10:14:12,30-Sep-21,0.5325,0.542,0.28355625,0.293764
10:14:12,30-Sep-21,0.5325,0.544,0.28355625,0.295936
10:14:12,30-Sep-21,0.5325,0.546,0.28355625,0.298116
10:14:12,30-Sep-21,0.5325,0.548,0.28355625,0.300304
10:14:12,30-Sep-21,0.5325,0.551,0.28355625,0.303601
10:14:12,30-Sep-21,0.5375,0.553,0.28890625,0.305809
10:14:12,30-Sep-21,0.5375,0.555,0.28890625,0.308025
10:14:12,30-Sep-21,0.5425,0.558,0.29430625,0.311364
10:14:12,30-Sep-21,0.5425,0.561,0.29430625,0.314721
10:14:12,30-Sep-21,0.5425,0.563,0.29430625,0.316969
10:14:12,30-Sep-21,0.557,0.566,0.310249,0.320356
10:14:12,30-Sep-21,0.5765,0.569,0.33235225,0.323761
10:14:12,30-Sep-21,0.5915,0.571,0.34987225,0.326041
10:14:12,30-Sep-21,0.5915,0.574,0.34987225,0.329476
10:14:12,30-Sep-21,0.601,0.577,0.361201,0.332929
10:14:12,30-Sep-21,0.601,0.58,0.361201,0.3364
10:14:12,30-Sep-21,0.601,0.582,0.361201,0.338724
10:14:12,30-Sep-21,0.606,0.585,0.367236,0.342225
10:14:12,30-Sep-21,0.606,0.588,0.367236,0.345744
10:14:12,30-Sep-21,0.606,0.59,0.367236,0.3481
10:14:12,30-Sep-21,0.606,0.593,0.367236,0.351649
10:14:13,30-Sep-21,0.606,0.596,0.367236,0.355216
10:14:13,30-Sep-21,0.601,0.598,0.361201,0.357604
10:14:13,30-Sep-21,0.601,0.601,0.361201,0.361201
10:14:13,30-Sep-21,0.601,0.603,0.361201,0.363609
10:14:13,30-Sep-21,0.601,0.606,0.361201,0.367236
10:14:13,30-Sep-21,0.601,0.608,0.361201,0.369664
10:14:13,30-Sep-21,0.606,0.61,0.367236,0.3721
10:14:13,30-Sep-21,0.606,0.613,0.367236,0.375769
10:14:13,30-Sep-21,0.611,0.615,0.373321,0.378225
10:14:13,30-Sep-21,0.611,0.617,0.373321,0.380689
10:14:13,30-Sep-21,0.6255,0.619,0.39125025,0.383161
10:14:13,30-Sep-21,0.6255,0.621,0.39125025,0.385641
10:14:13,30-Sep-21,0.6305,0.622,0.39753025,0.386884
10:14:13,30-Sep-21,0.6305,0.624,0.39753025,0.389376
10:14:13,30-Sep-21,0.6305,0.626,0.39753025,0.391876
10:14:13,30-Sep-21,0.6305,0.627,0.39753025,0.393129
10:14:13,30-Sep-21,0.6355,0.629,0.40386025,0.395641
10:14:13,30-Sep-21,0.6405,0.63,0.41024025,0.3969
10:14:13,30-Sep-21,0.6405,0.631,0.41024025,0.398161
10:14:13,30-Sep-21,0.6405,0.633,0.41024025,0.400689
10:14:13,30-Sep-21,0.6405,0.634,0.41024025,0.401956
10:14:13,30-Sep-21,0.6305,0.635,0.39753025,0.403225
10:14:13,30-Sep-21,0.6305,0.636,0.39753025,0.404496
10:14:13,30-Sep-21,0.6305,0.637,0.39753025,0.405769
10:14:13,30-Sep-21,0.6355,0.637,0.40386025,0.405769
10:14:13,30-Sep-21,0.6255,0.638,0.39125025,0.407044
10:14:13,30-Sep-21,0.6255,0.639,0.39125025,0.408321
10:14:13,30-Sep-21,0.6305,0.64,0.39753025,0.4096
10:14:13,30-Sep-21,0.6305,0.64,0.39753025,0.4096
10:14:13,30-Sep-21,0.6405,0.641,0.41024025,0.410881
10:14:13,30-Sep-21,0.6405,0.641,0.41024025,0.410881
10:14:13,30-Sep-21,0.65,0.641,0.4225,0.410881
10:14:13,30-Sep-21,0.65,0.642,0.4225,0.412164
10:14:13,30-Sep-21,0.65,0.642,0.4225,0.412164
10:14:13,30-Sep-21,0.66,0.642,0.4356,0.412164
10:14:13,30-Sep-21,0.66,0.642,0.4356,0.412164
10:14:13,30-Sep-21,0.65,0.642,0.4225,0.412164
10:14:13,30-Sep-21,0.65,0.642,0.4225,0.412164
10:14:13,30-Sep-21,0.6405,0.643,0.41024025,0.413449
10:14:13,30-Sep-21,0.6405,0.643,0.41024025,0.413449
10:14:13,30-Sep-21,0.6405,0.643,0.41024025,0.413449
10:14:13,30-Sep-21,0.6405,0.643,0.41024025,0.413449
10:14:13,30-Sep-21,0.6405,0.642,0.41024025,0.412164
10:14:13,30-Sep-21,0.6255,0.642,0.39125025,0.412164
10:14:13,30-Sep-21,0.6255,0.642,0.39125025,0.412164
10:14:13,30-Sep-21,0.6255,0.642,0.39125025,0.412164
10:14:13,30-Sep-21,0.6255,0.642,0.39125025,0.412164
10:14:13,30-Sep-21,0.6255,0.642,0.39125025,0.412164
10:14:13,30-Sep-21,0.6255,0.642,0.39125025,0.412164
10:14:13,30-Sep-21,0.6355,0.642,0.40386025,0.412164
10:14:13,30-Sep-21,0.6355,0.642,0.40386025,0.412164
10:14:13,30-Sep-21,0.6355,0.641,0.40386025,0.410881
10:14:13,30-Sep-21,0.6355,0.641,0.40386025,0.410881
10:14:13,30-Sep-21,0.6355,0.641,0.40386025,0.410881
10:14:13,30-Sep-21,0.6355,0.641,0.40386025,0.410881
10:14:13,30-Sep-21,0.6405,0.641,0.41024025,0.410881
10:14:13,30-Sep-21,0.6405,0.64,0.41024025,0.4096
10:14:13,30-Sep-21,0.645,0.64,0.416025,0.4096
10:14:13,30-Sep-21,0.645,0.64,0.416025,0.4096
10:14:13,30-Sep-21,0.645,0.639,0.416025,0.408321
10:14:13,30-Sep-21,0.65,0.639,0.4225,0.408321
10:14:13,30-Sep-21,0.65,0.639,0.4225,0.408321
10:14:13,30-Sep-21,0.65,0.638,0.4225,0.407044
10:14:13,30-Sep-21,0.645,0.638,0.416025,0.407044
10:14:13,30-Sep-21,0.645,0.638,0.416025,0.407044
10:14:13,30-Sep-21,0.645,0.637,0.416025,0.405769
10:14:13,30-Sep-21,0.645,0.637,0.416025,0.405769
10:14:13,30-Sep-21,0.645,0.636,0.416025,0.404496
10:14:13,30-Sep-21,0.645,0.636,0.416025,0.404496
10:14:13,30-Sep-21,0.6405,0.635,0.41024025,0.403225
10:14:13,30-Sep-21,0.6405,0.635,0.41024025,0.403225
10:14:13,30-Sep-21,0.6355,0.634,0.40386025,0.401956
10:14:13,30-Sep-21,0.6355,0.633,0.40386025,0.400689
10:14:13,30-Sep-21,0.6355,0.633,0.40386025,0.400689
10:14:13,30-Sep-21,0.6255,0.632,0.39125025,0.399424
10:14:13,30-Sep-21,0.6205,0.631,0.38502025,0.398161
10:14:13,30-Sep-21,0.6205,0.631,0.38502025,0.398161
10:14:13,30-Sep-21,0.6205,0.63,0.38502025,0.3969
10:14:13,30-Sep-21,0.616,0.629,0.379456,0.395641
10:14:13,30-Sep-21,0.616,0.628,0.379456,0.394384
10:14:13,30-Sep-21,0.616,0.628,0.379456,0.394384
10:14:13,30-Sep-21,0.6305,0.627,0.39753025,0.393129
10:14:13,30-Sep-21,0.6305,0.626,0.39753025,0.391876
10:14:13,30-Sep-21,0.6305,0.625,0.39753025,0.390625
10:14:13,30-Sep-21,0.6305,0.624,0.39753025,0.389376
10:14:13,30-Sep-21,0.6305,0.623,0.39753025,0.388129
10:14:13,30-Sep-21,0.6305,0.622,0.39753025,0.386884
10:14:13,30-Sep-21,0.6305,0.621,0.39753025,0.385641
10:14:13,30-Sep-21,0.6305,0.621,0.39753025,0.385641
10:14:13,30-Sep-21,0.6305,0.62,0.39753025,0.3844
10:14:13,30-Sep-21,0.6205,0.619,0.38502025,0.383161
10:14:13,30-Sep-21,0.6205,0.618,0.38502025,0.381924
10:14:13,30-Sep-21,0.6205,0.617,0.38502025,0.380689
10:14:13,30-Sep-21,0.6205,0.616,0.38502025,0.379456
10:14:13,30-Sep-21,0.616,0.615,0.379456,0.378225
10:14:13,30-Sep-21,0.606,0.614,0.367236,0.376996
10:14:13,30-Sep-21,0.606,0.613,0.367236,0.375769
10:14:13,30-Sep-21,0.606,0.612,0.367236,0.374544
10:14:13,30-Sep-21,0.606,0.611,0.367236,0.373321
10:14:13,30-Sep-21,0.606,0.61,0.367236,0.3721
10:14:13,30-Sep-21,0.601,0.609,0.361201,0.370881
10:14:13,30-Sep-21,0.601,0.608,0.361201,0.369664
10:14:13,30-Sep-21,0.5965,0.608,0.35581225,0.369664
10:14:13,30-Sep-21,0.5965,0.607,0.35581225,0.368449
10:14:13,30-Sep-21,0.5965,0.606,0.35581225,0.367236
10:14:13,30-Sep-21,0.5965,0.605,0.35581225,0.366025
10:14:13,30-Sep-21,0.5965,0.604,0.35581225,0.364816
10:14:13,30-Sep-21,0.5965,0.603,0.35581225,0.363609
10:14:13,30-Sep-21,0.5965,0.602,0.35581225,0.362404
10:14:13,30-Sep-21,0.5965,0.602,0.35581225,0.362404
10:14:13,30-Sep-21,0.601,0.601,0.361201,0.361201
10:14:13,30-Sep-21,0.601,0.6,0.361201,0.36
10:14:13,30-Sep-21,0.611,0.599,0.373321,0.358801
10:14:13,30-Sep-21,0.611,0.598,0.373321,0.357604
10:14:13,30-Sep-21,0.611,0.598,0.373321,0.357604
10:14:13,30-Sep-21,0.611,0.597,0.373321,0.356409
10:14:13,30-Sep-21,0.611,0.596,0.373321,0.355216
10:14:13,30-Sep-21,0.606,0.595,0.367236,0.354025
10:14:13,30-Sep-21,0.606,0.594,0.367236,0.352836
10:14:13,30-Sep-21,0.606,0.594,0.367236,0.352836
10:14:13,30-Sep-21,0.606,0.593,0.367236,0.351649
10:14:13,30-Sep-21,0.5915,0.592,0.34987225,0.350464
10:14:13,30-Sep-21,0.5915,0.591,0.34987225,0.349281
10:14:13,30-Sep-21,0.5915,0.59,0.34987225,0.3481
10:14:14,30-Sep-21,0.5915,0.59,0.34987225,0.3481
10:14:14,30-Sep-21,0.5865,0.589,0.34398225,0.346921
10:14:14,30-Sep-21,0.5865,0.588,0.34398225,0.345744
10:14:14,30-Sep-21,0.5765,0.587,0.33235225,0.344569
10:14:14,30-Sep-21,0.5765,0.587,0.33235225,0.344569
10:14:14,30-Sep-21,0.572,0.586,0.327184,0.343396
10:14:14,30-Sep-21,0.572,0.585,0.327184,0.342225
10:14:14,30-Sep-21,0.572,0.584,0.327184,0.341056
10:14:14,30-Sep-21,0.572,0.584,0.327184,0.341056
10:14:14,30-Sep-21,0.572,0.583,0.327184,0.339889
10:14:14,30-Sep-21,0.572,0.582,0.327184,0.338724
10:14:14,30-Sep-21,0.5765,0.582,0.33235225,0.338724
10:14:14,30-Sep-21,0.5765,0.581,0.33235225,0.337561
10:14:14,30-Sep-21,0.5765,0.58,0.33235225,0.3364
10:14:14,30-Sep-21,0.5765,0.58,0.33235225,0.3364
10:14:14,30-Sep-21,0.5765,0.579,0.33235225,0.335241
10:14:14,30-Sep-21,0.5765,0.578,0.33235225,0.334084
10:14:14,30-Sep-21,0.5765,0.578,0.33235225,0.334084
10:14:14,30-Sep-21,0.5765,0.577,0.33235225,0.332929
10:14:14,30-Sep-21,0.5865,0.576,0.34398225,0.331776
10:14:14,30-Sep-21,0.5865,0.575,0.34398225,0.330625
10:14:14,30-Sep-21,0.5865,0.575,0.34398225,0.330625
10:14:14,30-Sep-21,0.5865,0.574,0.34398225,0.329476
10:14:14,30-Sep-21,0.5815,0.573,0.33814225,0.328329
10:14:14,30-Sep-21,0.5815,0.572,0.33814225,0.327184
10:14:14,30-Sep-21,0.5815,0.572,0.33814225,0.327184
10:14:14,30-Sep-21,0.5815,0.571,0.33814225,0.326041
10:14:14,30-Sep-21,0.5765,0.57,0.33235225,0.3249
10:14:14,30-Sep-21,0.5765,0.569,0.33235225,0.323761
10:14:14,30-Sep-21,0.5765,0.568,0.33235225,0.322624
10:14:14,30-Sep-21,0.567,0.568,0.321489,0.322624
10:14:14,30-Sep-21,0.567,0.567,0.321489,0.321489
10:14:14,30-Sep-21,0.562,0.566,0.315844,0.320356
10:14:14,30-Sep-21,0.562,0.565,0.315844,0.319225
10:14:14,30-Sep-21,0.562,0.564,0.315844,0.318096
10:14:14,30-Sep-21,0.562,0.563,0.315844,0.316969
10:14:14,30-Sep-21,0.557,0.562,0.310249,0.315844
10:14:14,30-Sep-21,0.557,0.562,0.310249,0.315844
10:14:14,30-Sep-21,0.557,0.561,0.310249,0.314721
10:14:14,30-Sep-21,0.557,0.56,0.310249,0.3136
10:14:14,30-Sep-21,0.557,0.559,0.310249,0.312481
10:14:14,30-Sep-21,0.5525,0.558,0.30525625,0.311364
10:14:14,30-Sep-21,0.5525,0.557,0.30525625,0.310249
10:14:14,30-Sep-21,0.5475,0.556,0.29975625,0.309136
10:14:14,30-Sep-21,0.5475,0.556,0.29975625,0.309136
10:14:14,30-Sep-21,0.5525,0.555,0.30525625,0.308025
10:14:14,30-Sep-21,0.5525,0.554,0.30525625,0.306916
10:14:14,30-Sep-21,0.5525,0.553,0.30525625,0.305809
10:14:14,30-Sep-21,0.5525,0.552,0.30525625,0.304704
10:14:14,30-Sep-21,0.557,0.552,0.310249,0.304704
10:14:14,30-Sep-21,0.557,0.551,0.310249,0.303601
10:14:14,30-Sep-21,0.557,0.55,0.310249,0.3025
10:14:14,30-Sep-21,0.557,0.549,0.310249,0.301401
10:14:14,30-Sep-21,0.557,0.549,0.310249,0.301401
10:14:14,30-Sep-21,0.557,0.548,0.310249,0.300304
10:14:14,30-Sep-21,0.5475,0.547,0.29975625,0.299209
10:14:14,30-Sep-21,0.5475,0.547,0.29975625,0.299209
10:14:14,30-Sep-21,0.5475,0.546,0.29975625,0.298116
10:14:14,30-Sep-21,0.5475,0.545,0.29975625,0.297025
10:14:14,30-Sep-21,0.5475,0.545,0.29975625,0.297025
10:14:14,30-Sep-21,0.5475,0.544,0.29975625,0.295936
10:14:14,30-Sep-21,0.5425,0.544,0.29430625,0.295936
10:14:14,30-Sep-21,0.5425,0.543,0.29430625,0.294849
10:14:14,30-Sep-21,0.5425,0.543,0.29430625,0.294849
10:14:14,30-Sep-21,0.5425,0.542,0.29430625,0.293764
10:14:14,30-Sep-21,0.5325,0.542,0.28355625,0.293764
10:14:14,30-Sep-21,0.5325,0.542,0.28355625,0.293764
10:14:14,30-Sep-21,0.528,0.541,0.278784,0.292681
10:14:14,30-Sep-21,0.528,0.541,0.278784,0.292681
10:14:14,30-Sep-21,0.528,0.541,0.278784,0.292681
10:14:14,30-Sep-21,0.528,0.541,0.278784,0.292681
10:14:14,30-Sep-21,0.5325,0.54,0.28355625,0.2916
10:14:14,30-Sep-21,0.5325,0.54,0.28355625,0.2916
10:14:14,30-Sep-21,0.5325,0.54,0.28355625,0.2916
10:14:14,30-Sep-21,0.5425,0.54,0.29430625,0.2916
10:14:14,30-Sep-21,0.5425,0.54,0.29430625,0.2916
10:14:14,30-Sep-21,0.5425,0.54,0.29430625,0.2916
10:14:14,30-Sep-21,0.5425,0.54,0.29430625,0.2916
10:14:14,30-Sep-21,0.5425,0.54,0.29430625,0.2916
10:14:14,30-Sep-21,0.5425,0.54,0.29430625,0.2916
10:14:14,30-Sep-21,0.5425,0.54,0.29430625,0.2916
10:14:14,30-Sep-21,0.5425,0.54,0.29430625,0.2916
10:14:14,30-Sep-21,0.5475,0.54,0.29975625,0.2916
10:14:14,30-Sep-21,0.5475,0.54,0.29975625,0.2916
10:14:14,30-Sep-21,0.5475,0.54,0.29975625,0.2916
10:14:14,30-Sep-21,0.5475,0.54,0.29975625,0.2916
10:14:14,30-Sep-21,0.5475,0.54,0.29975625,0.2916
10:14:14,30-Sep-21,0.5475,0.54,0.29975625,0.2916
10:14:14,30-Sep-21,0.5475,0.54,0.29975625,0.2916
10:14:14,30-Sep-21,0.5475,0.54,0.29975625,0.2916
10:14:14,30-Sep-21,0.5475,0.54,0.29975625,0.2916
10:14:14,30-Sep-21,0.5475,0.54,0.29975625,0.2916
10:14:14,30-Sep-21,0.5475,0.54,0.29975625,0.2916
10:14:14,30-Sep-21,0.5425,0.54,0.29430625,0.2916
10:14:14,30-Sep-21,0.5425,0.54,0.29430625,0.2916
10:14:14,30-Sep-21,0.5425,0.54,0.29430625,0.2916
10:14:14,30-Sep-21,0.5375,0.54,0.28890625,0.2916
10:14:14,30-Sep-21,0.5375,0.54,0.28890625,0.2916
10:14:14,30-Sep-21,0.5375,0.54,0.28890625,0.2916
10:14:14,30-Sep-21,0.5325,0.54,0.28355625,0.2916
10:14:14,30-Sep-21,0.5325,0.54,0.28355625,0.2916
10:14:14,30-Sep-21,0.528,0.54,0.278784,0.2916
10:14:14,30-Sep-21,0.528,0.54,0.278784,0.2916
10:14:14,30-Sep-21,0.528,0.541,0.278784,0.292681
10:14:14,30-Sep-21,0.528,0.541,0.278784,0.292681
10:14:14,30-Sep-21,0.528,0.541,0.278784,0.292681
10:14:14,30-Sep-21,0.528,0.541,0.278784,0.292681
10:14:14,30-Sep-21,0.5325,0.541,0.28355625,0.292681
10:14:14,30-Sep-21,0.5325,0.541,0.28355625,0.292681
10:14:14,30-Sep-21,0.5325,0.541,0.28355625,0.292681
10:14:14,30-Sep-21,0.5475,0.541,0.29975625,0.292681
10:14:14,30-Sep-21,0.5475,0.542,0.29975625,0.293764
10:14:14,30-Sep-21,0.5475,0.542,0.29975625,0.293764
10:14:14,30-Sep-21,0.5475,0.542,0.29975625,0.293764
10:14:14,30-Sep-21,0.5525,0.542,0.30525625,0.293764
10:14:14,30-Sep-21,0.5525,0.542,0.30525625,0.293764
10:14:14,30-Sep-21,0.5525,0.542,0.30525625,0.293764
10:14:14,30-Sep-21,0.5525,0.542,0.30525625,0.293764
10:14:14,30-Sep-21,0.5525,0.542,0.30525625,0.293764
10:14:14,30-Sep-21,0.5525,0.543,0.30525625,0.294849
10:14:14,30-Sep-21,0.5525,0.543,0.30525625,0.294849
10:14:14,30-Sep-21,0.5525,0.543,0.30525625,0.294849
10:14:14,30-Sep-21,0.5475,0.543,0.29975625,0.294849
10:14:14,30-Sep-21,0.5475,0.543,0.29975625,0.294849
10:14:14,30-Sep-21,0.5475,0.543,0.29975625,0.294849
10:14:14,30-Sep-21,0.5425,0.543,0.29430625,0.294849
10:14:14,30-Sep-21,0.5425,0.543,0.29430625,0.294849
10:14:14,30-Sep-21,0.5425,0.543,0.29430625,0.294849
10:14:14,30-Sep-21,0.5425,0.543,0.29430625,0.294849
10:14:14,30-Sep-21,0.5425,0.543,0.29430625,0.294849
10:14:14,30-Sep-21,0.5325,0.543,0.28355625,0.294849
10:14:14,30-Sep-21,0.5325,0.543,0.28355625,0.294849
10:14:14,30-Sep-21,0.5325,0.543,0.28355625,0.294849
10:14:14,30-Sep-21,0.5325,0.543,0.28355625,0.294849
10:14:14,30-Sep-21,0.5325,0.543,0.28355625,0.294849
10:14:14,30-Sep-21,0.5325,0.544,0.28355625,0.295936
10:14:14,30-Sep-21,0.5325,0.544,0.28355625,0.295936
10:14:14,30-Sep-21,0.5375,0.544,0.28890625,0.295936
10:14:14,30-Sep-21,0.5375,0.544,0.28890625,0.295936
10:14:14,30-Sep-21,0.5375,0.544,0.28890625,0.295936
10:14:14,30-Sep-21,0.5425,0.544,0.29430625,0.295936
10:14:14,30-Sep-21,0.5425,0.544,0.29430625,0.295936
10:14:14,30-Sep-21,0.5425,0.544,0.29430625,0.295936
10:14:14,30-Sep-21,0.5425,0.544,0.29430625,0.295936
10:14:14,30-Sep-21,0.5525,0.544,0.30525625,0.295936
10:14:14,30-Sep-21,0.5525,0.544,0.30525625,0.295936
10:14:14,30-Sep-21,0.5525,0.544,0.30525625,0.295936
10:14:14,30-Sep-21,0.5525,0.544,0.30525625,0.295936
10:14:14,30-Sep-21,0.5525,0.544,0.30525625,0.295936
10:14:14,30-Sep-21,0.5525,0.543,0.30525625,0.294849
10:14:14,30-Sep-21,0.5525,0.543,0.30525625,0.294849
10:14:14,30-Sep-21,0.5525,0.543,0.30525625,0.294849
10:14:14,30-Sep-21,0.5475,0.543,0.29975625,0.294849
10:14:14,30-Sep-21,0.5475,0.543,0.29975625,0.294849
10:14:14,30-Sep-21,0.5475,0.543,0.29975625,0.294849
10:14:14,30-Sep-21,0.5475,0.543,0.29975625,0.294849
10:14:14,30-Sep-21,0.5475,0.543,0.29975625,0.294849
10:14:15,30-Sep-21,0.5425,0.543,0.29430625,0.294849
10:14:15,30-Sep-21,0.5425,0.542,0.29430625,0.293764
10:14:15,30-Sep-21,0.5425,0.542,0.29430625,0.293764
10:14:15,30-Sep-21,0.5375,0.542,0.28890625,0.293764
10:14:15,30-Sep-21,0.5375,0.542,0.28890625,0.293764
10:14:15,30-Sep-21,0.5375,0.542,0.28890625,0.293764
10:14:15,30-Sep-21,0.5375,0.542,0.28890625,0.293764
10:14:15,30-Sep-21,0.5375,0.541,0.28890625,0.292681
10:14:15,30-Sep-21,0.5325,0.541,0.28355625,0.292681
10:14:15,30-Sep-21,0.5325,0.541,0.28355625,0.292681
10:14:15,30-Sep-21,0.5325,0.541,0.28355625,0.292681
10:14:15,30-Sep-21,0.5325,0.541,0.28355625,0.292681
10:14:15,30-Sep-21,0.5325,0.541,0.28355625,0.292681
10:14:15,30-Sep-21,0.5325,0.541,0.28355625,0.292681
10:14:15,30-Sep-21,0.5325,0.54,0.28355625,0.2916
10:14:15,30-Sep-21,0.5425,0.54,0.29430625,0.2916
10:14:15,30-Sep-21,0.5425,0.54,0.29430625,0.2916
10:14:15,30-Sep-21,0.5425,0.54,0.29430625,0.2916
10:14:15,30-Sep-21,0.5425,0.54,0.29430625,0.2916
10:14:15,30-Sep-21,0.5475,0.54,0.29975625,0.2916
10:14:15,30-Sep-21,0.5475,0.54,0.29975625,0.2916
10:14:15,30-Sep-21,0.5525,0.54,0.30525625,0.2916
10:14:15,30-Sep-21,0.5525,0.539,0.30525625,0.290521
10:14:15,30-Sep-21,0.5475,0.539,0.29975625,0.290521
10:14:15,30-Sep-21,0.5475,0.539,0.29975625,0.290521
10:14:15,30-Sep-21,0.5425,0.539,0.29430625,0.290521
10:14:15,30-Sep-21,0.5425,0.539,0.29430625,0.290521
10:14:15,30-Sep-21,0.5425,0.539,0.29430625,0.290521
10:14:15,30-Sep-21,0.5425,0.539,0.29430625,0.290521
10:14:15,30-Sep-21,0.5425,0.539,0.29430625,0.290521
10:14:15,30-Sep-21,0.5325,0.539,0.28355625,0.290521
10:14:15,30-Sep-21,0.5325,0.539,0.28355625,0.290521
10:14:15,30-Sep-21,0.5325,0.539,0.28355625,0.290521
10:14:15,30-Sep-21,0.5325,0.539,0.28355625,0.290521
10:14:15,30-Sep-21,0.5325,0.539,0.28355625,0.290521
10:14:15,30-Sep-21,0.5325,0.539,0.28355625,0.290521
10:14:15,30-Sep-21,0.528,0.539,0.278784,0.290521
10:14:15,30-Sep-21,0.528,0.539,0.278784,0.290521
10:14:15,30-Sep-21,0.528,0.54,0.278784,0.2916
10:14:15,30-Sep-21,0.528,0.54,0.278784,0.2916
10:14:15,30-Sep-21,0.5325,0.54,0.28355625,0.2916
10:14:15,30-Sep-21,0.5475,0.54,0.29975625,0.2916
10:14:15,30-Sep-21,0.5475,0.54,0.29975625,0.2916
10:14:15,30-Sep-21,0.5475,0.54,0.29975625,0.2916
10:14:15,30-Sep-21,0.5475,0.54,0.29975625,0.2916
10:14:15,30-Sep-21,0.5475,0.541,0.29975625,0.292681
10:14:15,30-Sep-21,0.5475,0.541,0.29975625,0.292681
10:14:15,30-Sep-21,0.5475,0.541,0.29975625,0.292681
10:14:15,30-Sep-21,0.5475,0.541,0.29975625,0.292681
10:14:15,30-Sep-21,0.5475,0.541,0.29975625,0.292681
10:14:15,30-Sep-21,0.5425,0.542,0.29430625,0.293764
10:14:15,30-Sep-21,0.5425,0.542,0.29430625,0.293764
10:14:15,30-Sep-21,0.5425,0.542,0.29430625,0.293764
10:14:15,30-Sep-21,0.5425,0.542,0.29430625,0.293764
10:14:15,30-Sep-21,0.5425,0.542,0.29430625,0.293764
10:14:15,30-Sep-21,0.5375,0.543,0.28890625,0.294849
10:14:15,30-Sep-21,0.5375,0.543,0.28890625,0.294849
10:14:15,30-Sep-21,0.5325,0.543,0.28355625,0.294849
10:14:15,30-Sep-21,0.5325,0.543,0.28355625,0.294849
10:14:15,30-Sep-21,0.5325,0.543,0.28355625,0.294849
10:14:15,30-Sep-21,0.5325,0.543,0.28355625,0.294849
10:14:15,30-Sep-21,0.5375,0.544,0.28890625,0.295936
10:14:15,30-Sep-21,0.5375,0.544,0.28890625,0.295936
10:14:15,30-Sep-21,0.5425,0.544,0.29430625,0.295936
10:14:15,30-Sep-21,0.5425,0.544,0.29430625,0.295936
10:14:15,30-Sep-21,0.5525,0.544,0.30525625,0.295936
10:14:15,30-Sep-21,0.5525,0.544,0.30525625,0.295936
10:14:15,30-Sep-21,0.5525,0.544,0.30525625,0.295936
10:14:15,30-Sep-21,0.5525,0.544,0.30525625,0.295936
10:14:15,30-Sep-21,0.5525,0.544,0.30525625,0.295936
10:14:15,30-Sep-21,0.5525,0.544,0.30525625,0.295936
10:14:15,30-Sep-21,0.5525,0.544,0.30525625,0.295936
10:14:15,30-Sep-21,0.5525,0.544,0.30525625,0.295936
10:14:15,30-Sep-21,0.5525,0.544,0.30525625,0.295936
10:14:15,30-Sep-21,0.5525,0.544,0.30525625,0.295936
10:14:15,30-Sep-21,0.5475,0.544,0.29975625,0.295936
10:14:15,30-Sep-21,0.5475,0.544,0.29975625,0.295936
10:14:15,30-Sep-21,0.5475,0.544,0.29975625,0.295936
10:14:15,30-Sep-21,0.5425,0.544,0.29430625,0.295936
10:14:15,30-Sep-21,0.5425,0.543,0.29430625,0.294849
10:14:15,30-Sep-21,0.5425,0.543,0.29430625,0.294849
10:14:15,30-Sep-21,0.5425,0.543,0.29430625,0.294849
10:14:15,30-Sep-21,0.5375,0.543,0.28890625,0.294849
10:14:15,30-Sep-21,0.5375,0.543,0.28890625,0.294849
10:14:15,30-Sep-21,0.5375,0.542,0.28890625,0.293764
10:14:15,30-Sep-21,0.5325,0.542,0.28355625,0.293764
10:14:15,30-Sep-21,0.5325,0.542,0.28355625,0.293764
10:14:15,30-Sep-21,0.5325,0.542,0.28355625,0.293764
10:14:15,30-Sep-21,0.5375,0.542,0.28890625,0.293764
10:14:15,30-Sep-21,0.5375,0.541,0.28890625,0.292681
10:14:15,30-Sep-21,0.5425,0.541,0.29430625,0.292681
10:14:15,30-Sep-21,0.5425,0.541,0.29430625,0.292681
10:14:15,30-Sep-21,0.5475,0.541,0.29975625,0.292681
10:14:15,30-Sep-21,0.5475,0.54,0.29975625,0.2916
10:14:15,30-Sep-21,0.5475,0.54,0.29975625,0.2916
10:14:15,30-Sep-21,0.5475,0.54,0.29975625,0.2916
10:14:15,30-Sep-21,0.5475,0.54,0.29975625,0.2916
10:14:15,30-Sep-21,0.5425,0.54,0.29430625,0.2916
10:14:15,30-Sep-21,0.5425,0.539,0.29430625,0.290521
10:14:15,30-Sep-21,0.5325,0.539,0.28355625,0.290521
10:14:15,30-Sep-21,0.5325,0.539,0.28355625,0.290521
10:14:15,30-Sep-21,0.5325,0.539,0.28355625,0.290521
10:14:15,30-Sep-21,0.5325,0.539,0.28355625,0.290521
10:14:15,30-Sep-21,0.5325,0.539,0.28355625,0.290521
10:14:15,30-Sep-21,0.5325,0.538,0.28355625,0.289444
10:14:15,30-Sep-21,0.5325,0.538,0.28355625,0.289444
10:14:15,30-Sep-21,0.5325,0.538,0.28355625,0.289444
10:14:15,30-Sep-21,0.5325,0.538,0.28355625,0.289444
10:14:15,30-Sep-21,0.5325,0.538,0.28355625,0.289444
10:14:15,30-Sep-21,0.5325,0.538,0.28355625,0.289444
10:14:15,30-Sep-21,0.5325,0.538,0.28355625,0.289444
10:14:15,30-Sep-21,0.5425,0.538,0.29430625,0.289444
10:14:15,30-Sep-21,0.5425,0.538,0.29430625,0.289444
10:14:15,30-Sep-21,0.5425,0.538,0.29430625,0.289444
10:14:15,30-Sep-21,0.5425,0.538,0.29430625,0.289444
10:14:15,30-Sep-21,0.5475,0.538,0.29975625,0.289444
10:14:15,30-Sep-21,0.5475,0.538,0.29975625,0.289444
10:14:15,30-Sep-21,0.5475,0.539,0.29975625,0.290521
10:14:15,30-Sep-21,0.5475,0.539,0.29975625,0.290521
10:14:15,30-Sep-21,0.5475,0.539,0.29975625,0.290521
10:14:15,30-Sep-21,0.5475,0.539,0.29975625,0.290521
10:14:15,30-Sep-21,0.5475,0.539,0.29975625,0.290521
10:14:16,30-Sep-21,0.5425,0.539,0.29430625,0.290521
10:14:16,30-Sep-21,0.5425,0.54,0.29430625,0.2916
10:14:16,30-Sep-21,0.5425,0.54,0.29430625,0.2916
10:14:16,30-Sep-21,0.5375,0.54,0.28890625,0.2916
10:14:16,30-Sep-21,0.5375,0.54,0.28890625,0.2916
10:14:16,30-Sep-21,0.5325,0.541,0.28355625,0.292681
10:14:16,30-Sep-21,0.5325,0.541,0.28355625,0.292681
10:14:16,30-Sep-21,0.5325,0.541,0.28355625,0.292681
10:14:16,30-Sep-21,0.5325,0.542,0.28355625,0.293764
10:14:16,30-Sep-21,0.5325,0.542,0.28355625,0.293764
10:14:16,30-Sep-21,0.5325,0.542,0.28355625,0.293764
10:14:16,30-Sep-21,0.5325,0.543,0.28355625,0.294849
10:14:16,30-Sep-21,0.5325,0.543,0.28355625,0.294849
10:14:16,30-Sep-21,0.5325,0.544,0.28355625,0.295936
10:14:16,30-Sep-21,0.5425,0.544,0.29430625,0.295936
10:14:16,30-Sep-21,0.5425,0.544,0.29430625,0.295936
10:14:16,30-Sep-21,0.5425,0.545,0.29430625,0.297025
10:14:16,30-Sep-21,0.5525,0.545,0.30525625,0.297025
10:14:16,30-Sep-21,0.5525,0.546,0.30525625,0.298116
10:14:16,30-Sep-21,0.5525,0.546,0.30525625,0.298116
10:14:16,30-Sep-21,0.5525,0.547,0.30525625,0.299209
10:14:16,30-Sep-21,0.5525,0.548,0.30525625,0.300304
10:14:16,30-Sep-21,0.557,0.548,0.310249,0.300304
10:14:16,30-Sep-21,0.557,0.549,0.310249,0.301401
10:14:16,30-Sep-21,0.557,0.549,0.310249,0.301401
10:14:16,30-Sep-21,0.557,0.55,0.310249,0.3025
10:14:16,30-Sep-21,0.557,0.55,0.310249,0.3025
10:14:16,30-Sep-21,0.557,0.551,0.310249,0.303601
10:14:16,30-Sep-21,0.557,0.551,0.310249,0.303601
10:14:16,30-Sep-21,0.557,0.552,0.310249,0.304704
10:14:16,30-Sep-21,0.557,0.553,0.310249,0.305809
10:14:16,30-Sep-21,0.557,0.553,0.310249,0.305809
10:14:16,30-Sep-21,0.5525,0.554,0.30525625,0.306916
10:14:16,30-Sep-21,0.5525,0.554,0.30525625,0.306916
10:14:16,30-Sep-21,0.5525,0.555,0.30525625,0.308025
10:14:16,30-Sep-21,0.5525,0.556,0.30525625,0.309136
10:14:16,30-Sep-21,0.5525,0.556,0.30525625,0.309136
10:14:16,30-Sep-21,0.5525,0.557,0.30525625,0.310249
10:14:16,30-Sep-21,0.5475,0.557,0.29975625,0.310249
10:14:16,30-Sep-21,0.5475,0.558,0.29975625,0.311364
10:14:16,30-Sep-21,0.5475,0.559,0.29975625,0.312481
10:14:16,30-Sep-21,0.5475,0.559,0.29975625,0.312481
10:14:16,30-Sep-21,0.5475,0.56,0.29975625,0.3136
10:14:16,30-Sep-21,0.5475,0.56,0.29975625,0.3136
10:14:16,30-Sep-21,0.5475,0.561,0.29975625,0.314721
10:14:16,30-Sep-21,0.562,0.561,0.315844,0.314721
10:14:16,30-Sep-21,0.562,0.562,0.315844,0.315844
10:14:16,30-Sep-21,0.567,0.563,0.321489,0.316969
10:14:16,30-Sep-21,0.567,0.563,0.321489,0.316969
10:14:16,30-Sep-21,0.572,0.564,0.327184,0.318096
10:14:16,30-Sep-21,0.572,0.564,0.327184,0.318096
10:14:16,30-Sep-21,0.572,0.565,0.327184,0.319225
10:14:16,30-Sep-21,0.5765,0.565,0.33235225,0.319225
10:14:16,30-Sep-21,0.5765,0.566,0.33235225,0.320356
10:14:16,30-Sep-21,0.572,0.566,0.327184,0.320356
10:14:16,30-Sep-21,0.572,0.566,0.327184,0.320356
10:14:16,30-Sep-21,0.572,0.567,0.327184,0.321489
10:14:16,30-Sep-21,0.572,0.567,0.327184,0.321489
10:14:16,30-Sep-21,0.567,0.568,0.321489,0.322624
10:14:16,30-Sep-21,0.567,0.568,0.321489,0.322624
10:14:16,30-Sep-21,0.567,0.568,0.321489,0.322624
10:14:16,30-Sep-21,0.562,0.568,0.315844,0.322624
10:14:16,30-Sep-21,0.562,0.569,0.315844,0.323761
10:14:16,30-Sep-21,0.562,0.569,0.315844,0.323761
10:14:16,30-Sep-21,0.557,0.569,0.310249,0.323761
10:14:16,30-Sep-21,0.557,0.569,0.310249,0.323761
10:14:16,30-Sep-21,0.562,0.569,0.315844,0.323761
10:14:16,30-Sep-21,0.562,0.569,0.315844,0.323761
10:14:16,30-Sep-21,0.562,0.569,0.315844,0.323761
10:14:16,30-Sep-21,0.562,0.569,0.315844,0.323761
10:14:16,30-Sep-21,0.572,0.569,0.327184,0.323761
10:14:16,30-Sep-21,0.572,0.569,0.327184,0.323761
10:14:16,30-Sep-21,0.5765,0.569,0.33235225,0.323761
10:14:16,30-Sep-21,0.5765,0.569,0.33235225,0.323761
10:14:16,30-Sep-21,0.5765,0.568,0.33235225,0.322624
10:14:16,30-Sep-21,0.5815,0.568,0.33814225,0.322624
10:14:16,30-Sep-21,0.5815,0.568,0.33814225,0.322624
10:14:16,30-Sep-21,0.5765,0.568,0.33235225,0.322624
10:14:16,30-Sep-21,0.5765,0.567,0.33235225,0.321489
10:14:16,30-Sep-21,0.572,0.567,0.327184,0.321489
10:14:16,30-Sep-21,0.572,0.566,0.327184,0.320356
10:14:16,30-Sep-21,0.572,0.566,0.327184,0.320356
10:14:16,30-Sep-21,0.572,0.566,0.327184,0.320356
10:14:16,30-Sep-21,0.572,0.565,0.327184,0.319225
10:14:16,30-Sep-21,0.572,0.565,0.327184,0.319225
10:14:16,30-Sep-21,0.567,0.564,0.321489,0.318096
10:14:16,30-Sep-21,0.567,0.564,0.321489,0.318096
10:14:16,30-Sep-21,0.567,0.563,0.321489,0.316969
10:14:16,30-Sep-21,0.557,0.562,0.310249,0.315844
10:14:16,30-Sep-21,0.557,0.562,0.310249,0.315844
10:14:16,30-Sep-21,0.5525,0.561,0.30525625,0.314721
10:14:16,30-Sep-21,0.5525,0.561,0.30525625,0.314721
10:14:16,30-Sep-21,0.5525,0.56,0.30525625,0.3136
10:14:16,30-Sep-21,0.5475,0.56,0.29975625,0.3136
10:14:16,30-Sep-21,0.5475,0.559,0.29975625,0.312481
10:14:16,30-Sep-21,0.5475,0.559,0.29975625,0.312481
10:14:16,30-Sep-21,0.5475,0.558,0.29975625,0.311364
10:14:16,30-Sep-21,0.5475,0.558,0.29975625,0.311364
10:14:16,30-Sep-21,0.5525,0.558,0.30525625,0.311364
10:14:16,30-Sep-21,0.5525,0.557,0.30525625,0.310249
10:14:16,30-Sep-21,0.562,0.557,0.315844,0.310249
10:14:16,30-Sep-21,0.562,0.557,0.315844,0.310249
10:14:16,30-Sep-21,0.562,0.556,0.315844,0.309136
10:14:16,30-Sep-21,0.562,0.556,0.315844,0.309136
10:14:16,30-Sep-21,0.562,0.556,0.315844,0.309136
10:14:16,30-Sep-21,0.562,0.556,0.315844,0.309136
10:14:16,30-Sep-21,0.562,0.556,0.315844,0.309136
10:14:16,30-Sep-21,0.562,0.555,0.315844,0.308025
10:14:16,30-Sep-21,0.562,0.555,0.315844,0.308025
10:14:16,30-Sep-21,0.562,0.555,0.315844,0.308025
10:14:16,30-Sep-21,0.562,0.555,0.315844,0.308025
10:14:16,30-Sep-21,0.557,0.556,0.310249,0.309136
10:14:16,30-Sep-21,0.557,0.556,0.310249,0.309136
10:14:16,30-Sep-21,0.557,0.556,0.310249,0.309136
10:14:16,30-Sep-21,0.557,0.556,0.310249,0.309136
10:14:16,30-Sep-21,0.5525,0.556,0.30525625,0.309136
10:14:16,30-Sep-21,0.5525,0.557,0.30525625,0.310249
10:14:16,30-Sep-21,0.5525,0.557,0.30525625,0.310249
10:14:16,30-Sep-21,0.5525,0.557,0.30525625,0.310249
10:14:16,30-Sep-21,0.5525,0.558,0.30525625,0.311364
10:14:16,30-Sep-21,0.5425,0.558,0.29430625,0.311364
10:14:16,30-Sep-21,0.5425,0.559,0.29430625,0.312481
10:14:16,30-Sep-21,0.5425,0.559,0.29430625,0.312481
10:14:16,30-Sep-21,0.5425,0.56,0.29430625,0.3136
10:14:16,30-Sep-21,0.5425,0.56,0.29430625,0.3136
10:14:16,30-Sep-21,0.5475,0.561,0.29975625,0.314721
10:14:16,30-Sep-21,0.5525,0.562,0.30525625,0.315844
10:14:16,30-Sep-21,0.557,0.562,0.310249,0.315844
10:14:16,30-Sep-21,0.572,0.563,0.327184,0.316969
10:14:16,30-Sep-21,0.572,0.564,0.327184,0.318096
10:14:16,30-Sep-21,0.572,0.564,0.327184,0.318096
10:14:16,30-Sep-21,0.572,0.565,0.327184,0.319225
10:14:16,30-Sep-21,0.572,0.566,0.327184,0.320356
10:14:16,30-Sep-21,0.5765,0.567,0.33235225,0.321489
10:14:16,30-Sep-21,0.5765,0.567,0.33235225,0.321489
10:14:16,30-Sep-21,0.5765,0.568,0.33235225,0.322624
10:14:16,30-Sep-21,0.5765,0.569,0.33235225,0.323761
10:14:16,30-Sep-21,0.5765,0.569,0.33235225,0.323761
10:14:16,30-Sep-21,0.5765,0.57,0.33235225,0.3249
10:14:16,30-Sep-21,0.5765,0.57,0.33235225,0.3249
10:14:16,30-Sep-21,0.5765,0.571,0.33235225,0.326041
10:14:17,30-Sep-21,0.5765,0.571,0.33235225,0.326041
10:14:17,30-Sep-21,0.5765,0.572,0.33235225,0.327184
10:14:17,30-Sep-21,0.5765,0.572,0.33235225,0.327184
10:14:17,30-Sep-21,0.572,0.573,0.327184,0.328329
10:14:17,30-Sep-21,0.572,0.573,0.327184,0.328329
10:14:17,30-Sep-21,0.572,0.574,0.327184,0.329476
10:14:17,30-Sep-21,0.572,0.574,0.327184,0.329476
10:14:17,30-Sep-21,0.572,0.574,0.327184,0.329476
10:14:17,30-Sep-21,0.572,0.574,0.327184,0.329476
10:14:17,30-Sep-21,0.572,0.575,0.327184,0.330625
10:14:17,30-Sep-21,0.567,0.575,0.321489,0.330625
10:14:17,30-Sep-21,0.567,0.575,0.321489,0.330625
10:14:17,30-Sep-21,0.567,0.575,0.321489,0.330625
10:14:17,30-Sep-21,0.567,0.575,0.321489,0.330625
10:14:17,30-Sep-21,0.5765,0.575,0.33235225,0.330625
10:14:17,30-Sep-21,0.5765,0.575,0.33235225,0.330625
10:14:17,30-Sep-21,0.5765,0.575,0.33235225,0.330625
10:14:17,30-Sep-21,0.5815,0.574,0.33814225,0.329476
10:14:17,30-Sep-21,0.5865,0.574,0.34398225,0.329476
10:14:17,30-Sep-21,0.5865,0.574,0.34398225,0.329476
10:14:17,30-Sep-21,0.5865,0.574,0.34398225,0.329476
10:14:17,30-Sep-21,0.5865,0.573,0.34398225,0.328329
10:14:17,30-Sep-21,0.5865,0.573,0.34398225,0.328329
10:14:17,30-Sep-21,0.5815,0.573,0.33814225,0.328329
10:14:17,30-Sep-21,0.5765,0.572,0.33235225,0.327184
10:14:17,30-Sep-21,0.5765,0.572,0.33235225,0.327184
10:14:17,30-Sep-21,0.572,0.571,0.327184,0.326041
10:14:17,30-Sep-21,0.572,0.571,0.327184,0.326041
10:14:17,30-Sep-21,0.572,0.57,0.327184,0.3249
10:14:17,30-Sep-21,0.562,0.57,0.315844,0.3249
10:14:17,30-Sep-21,0.562,0.569,0.315844,0.323761
10:14:17,30-Sep-21,0.557,0.569,0.310249,0.323761
10:14:17,30-Sep-21,0.5525,0.568,0.30525625,0.322624
10:14:17,30-Sep-21,0.5525,0.568,0.30525625,0.322624
10:14:17,30-Sep-21,0.5525,0.567,0.30525625,0.321489
10:14:17,30-Sep-21,0.5525,0.567,0.30525625,0.321489
10:14:17,30-Sep-21,0.562,0.566,0.315844,0.320356
10:14:17,30-Sep-21,0.562,0.566,0.315844,0.320356
10:14:17,30-Sep-21,0.562,0.565,0.315844,0.319225
10:14:17,30-Sep-21,0.567,0.565,0.321489,0.319225
10:14:17,30-Sep-21,0.567,0.565,0.321489,0.319225
10:14:17,30-Sep-21,0.567,0.564,0.321489,0.318096
10:14:17,30-Sep-21,0.567,0.564,0.321489,0.318096
10:14:17,30-Sep-21,0.567,0.563,0.321489,0.316969
10:14:17,30-Sep-21,0.567,0.563,0.321489,0.316969
10:14:17,30-Sep-21,0.567,0.562,0.321489,0.315844
10:14:17,30-Sep-21,0.567,0.562,0.321489,0.315844
10:14:17,30-Sep-21,0.562,0.562,0.315844,0.315844
10:14:17,30-Sep-21,0.562,0.561,0.315844,0.314721
10:14:17,30-Sep-21,0.562,0.561,0.315844,0.314721
10:14:17,30-Sep-21,0.562,0.561,0.315844,0.314721
10:14:17,30-Sep-21,0.5525,0.56,0.30525625,0.3136
10:14:17,30-Sep-21,0.5525,0.56,0.30525625,0.3136
10:14:17,30-Sep-21,0.5525,0.56,0.30525625,0.3136
10:14:17,30-Sep-21,0.5525,0.56,0.30525625,0.3136
10:14:17,30-Sep-21,0.5525,0.559,0.30525625,0.312481
10:14:17,30-Sep-21,0.5525,0.559,0.30525625,0.312481
10:14:17,30-Sep-21,0.557,0.559,0.310249,0.312481
10:14:17,30-Sep-21,0.557,0.559,0.310249,0.312481
10:14:17,30-Sep-21,0.557,0.559,0.310249,0.312481
10:14:17,30-Sep-21,0.567,0.558,0.321489,0.311364
10:14:17,30-Sep-21,0.567,0.558,0.321489,0.311364
10:14:17,30-Sep-21,0.567,0.558,0.321489,0.311364
10:14:17,30-Sep-21,0.567,0.558,0.321489,0.311364
10:14:17,30-Sep-21,0.567,0.558,0.321489,0.311364
10:14:17,30-Sep-21,0.567,0.557,0.321489,0.310249
10:14:17,30-Sep-21,0.567,0.557,0.321489,0.310249
10:14:17,30-Sep-21,0.562,0.557,0.315844,0.310249
10:14:17,30-Sep-21,0.562,0.557,0.315844,0.310249
10:14:17,30-Sep-21,0.562,0.557,0.315844,0.310249
10:14:17,30-Sep-21,0.5525,0.556,0.30525625,0.309136
10:14:17,30-Sep-21,0.5525,0.556,0.30525625,0.309136
10:14:17,30-Sep-21,0.5525,0.556,0.30525625,0.309136
10:14:17,30-Sep-21,0.5525,0.556,0.30525625,0.309136
10:14:17,30-Sep-21,0.5525,0.556,0.30525625,0.309136
10:14:17,30-Sep-21,0.5525,0.555,0.30525625,0.308025
10:14:17,30-Sep-21,0.5425,0.555,0.29430625,0.308025
10:14:17,30-Sep-21,0.5425,0.555,0.29430625,0.308025
10:14:17,30-Sep-21,0.5425,0.555,0.29430625,0.308025
10:14:17,30-Sep-21,0.5425,0.554,0.29430625,0.306916
10:14:17,30-Sep-21,0.5425,0.554,0.29430625,0.306916
10:14:17,30-Sep-21,0.5425,0.554,0.29430625,0.306916
10:14:17,30-Sep-21,0.5525,0.554,0.30525625,0.306916
10:14:17,30-Sep-21,0.5525,0.553,0.30525625,0.305809
10:14:17,30-Sep-21,0.5525,0.553,0.30525625,0.305809
10:14:17,30-Sep-21,0.557,0.553,0.310249,0.305809
10:14:17,30-Sep-21,0.557,0.553,0.310249,0.305809
10:14:17,30-Sep-21,0.557,0.552,0.310249,0.304704
10:14:17,30-Sep-21,0.562,0.552,0.315844,0.304704
10:14:17,30-Sep-21,0.562,0.552,0.315844,0.304704
10:14:17,30-Sep-21,0.562,0.551,0.315844,0.303601
10:14:17,30-Sep-21,0.562,0.551,0.315844,0.303601
10:14:17,30-Sep-21,0.562,0.551,0.315844,0.303601
10:14:17,30-Sep-21,0.557,0.55,0.310249,0.3025
10:14:17,30-Sep-21,0.557,0.55,0.310249,0.3025
10:14:17,30-Sep-21,0.557,0.549,0.310249,0.301401
10:14:17,30-Sep-21,0.557,0.549,0.310249,0.301401
10:14:17,30-Sep-21,0.557,0.549,0.310249,0.301401
10:14:17,30-Sep-21,0.557,0.548,0.310249,0.300304
10:14:17,30-Sep-21,0.557,0.548,0.310249,0.300304
10:14:17,30-Sep-21,0.557,0.547,0.310249,0.299209
10:14:17,30-Sep-21,0.557,0.547,0.310249,0.299209
10:14:17,30-Sep-21,0.5425,0.547,0.29430625,0.299209
10:14:17,30-Sep-21,0.5425,0.546,0.29430625,0.298116
10:14:17,30-Sep-21,0.5375,0.546,0.28890625,0.298116
10:14:17,30-Sep-21,0.5375,0.545,0.28890625,0.297025
10:14:17,30-Sep-21,0.5375,0.545,0.28890625,0.297025
10:14:17,30-Sep-21,0.5375,0.545,0.28890625,0.297025
10:14:17,30-Sep-21,0.5375,0.545,0.28890625,0.297025
10:14:17,30-Sep-21,0.5375,0.544,0.28890625,0.295936
10:14:17,30-Sep-21,0.5325,0.544,0.28355625,0.295936
10:14:17,30-Sep-21,0.5325,0.544,0.28355625,0.295936
10:14:17,30-Sep-21,0.5325,0.544,0.28355625,0.295936
10:14:17,30-Sep-21,0.5325,0.544,0.28355625,0.295936
10:14:17,30-Sep-21,0.5325,0.544,0.28355625,0.295936
10:14:17,30-Sep-21,0.5325,0.544,0.28355625,0.295936
10:14:17,30-Sep-21,0.5325,0.544,0.28355625,0.295936
10:14:17,30-Sep-21,0.5425,0.544,0.29430625,0.295936
10:14:17,30-Sep-21,0.5425,0.544,0.29430625,0.295936
10:14:17,30-Sep-21,0.5425,0.544,0.29430625,0.295936
10:14:17,30-Sep-21,0.5475,0.544,0.29975625,0.295936
10:14:17,30-Sep-21,0.5475,0.544,0.29975625,0.295936
10:14:17,30-Sep-21,0.5475,0.544,0.29975625,0.295936
10:14:17,30-Sep-21,0.557,0.545,0.310249,0.297025
10:14:17,30-Sep-21,0.557,0.545,0.310249,0.297025
10:14:17,30-Sep-21,0.557,0.545,0.310249,0.297025
10:14:17,30-Sep-21,0.5525,0.545,0.30525625,0.297025
10:14:17,30-Sep-21,0.5525,0.546,0.30525625,0.298116
10:14:17,30-Sep-21,0.5525,0.546,0.30525625,0.298116
10:14:18,30-Sep-21,0.5525,0.547,0.30525625,0.299209
10:14:18,30-Sep-21,0.5475,0.547,0.29975625,0.299209
10:14:18,30-Sep-21,0.5475,0.547,0.29975625,0.299209
10:14:18,30-Sep-21,0.5475,0.548,0.29975625,0.300304
10:14:18,30-Sep-21,0.5475,0.548,0.29975625,0.300304
10:14:18,30-Sep-21,0.5475,0.549,0.29975625,0.301401
10:14:18,30-Sep-21,0.5425,0.549,0.29430625,0.301401
10:14:18,30-Sep-21,0.5425,0.55,0.29430625,0.3025
10:14:18,30-Sep-21,0.5425,0.55,0.29430625,0.3025
10:14:18,30-Sep-21,0.5425,0.551,0.29430625,0.303601
10:14:18,30-Sep-21,0.5425,0.552,0.29430625,0.304704
10:14:18,30-Sep-21,0.5425,0.552,0.29430625,0.304704
10:14:18,30-Sep-21,0.5425,0.553,0.29430625,0.305809
10:14:18,30-Sep-21,0.5425,0.553,0.29430625,0.305809
10:14:18,30-Sep-21,0.5425,0.554,0.29430625,0.306916
10:14:18,30-Sep-21,0.5525,0.555,0.30525625,0.308025
10:14:18,30-Sep-21,0.5525,0.555,0.30525625,0.308025
10:14:18,30-Sep-21,0.5525,0.556,0.30525625,0.309136
10:14:18,30-Sep-21,0.567,0.556,0.321489,0.309136
10:14:18,30-Sep-21,0.567,0.557,0.321489,0.310249
10:14:18,30-Sep-21,0.567,0.557,0.321489,0.310249
10:14:18,30-Sep-21,0.567,0.558,0.321489,0.311364
10:14:18,30-Sep-21,0.567,0.558,0.321489,0.311364
10:14:18,30-Sep-21,0.567,0.559,0.321489,0.312481
10:14:18,30-Sep-21,0.567,0.559,0.321489,0.312481
10:14:18,30-Sep-21,0.567,0.559,0.321489,0.312481
10:14:18,30-Sep-21,0.567,0.56,0.321489,0.3136
10:14:18,30-Sep-21,0.567,0.56,0.321489,0.3136
10:14:18,30-Sep-21,0.567,0.561,0.321489,0.314721
10:14:18,30-Sep-21,0.567,0.561,0.321489,0.314721
10:14:18,30-Sep-21,0.567,0.561,0.321489,0.314721
10:14:18,30-Sep-21,0.567,0.561,0.321489,0.314721
10:14:18,30-Sep-21,0.567,0.562,0.321489,0.315844
10:14:18,30-Sep-21,0.567,0.562,0.321489,0.315844
10:14:18,30-Sep-21,0.567,0.562,0.321489,0.315844
10:14:18,30-Sep-21,0.562,0.562,0.315844,0.315844
10:14:18,30-Sep-21,0.562,0.562,0.315844,0.315844
10:14:18,30-Sep-21,0.562,0.562,0.315844,0.315844
10:14:18,30-Sep-21,0.562,0.562,0.315844,0.315844
10:14:18,30-Sep-21,0.557,0.562,0.310249,0.315844
10:14:18,30-Sep-21,0.557,0.563,0.310249,0.316969
10:14:18,30-Sep-21,0.557,0.563,0.310249,0.316969
10:14:18,30-Sep-21,0.557,0.563,0.310249,0.316969
10:14:18,30-Sep-21,0.5525,0.563,0.30525625,0.316969
10:14:18,30-Sep-21,0.5525,0.563,0.30525625,0.316969
10:14:18,30-Sep-21,0.5525,0.563,0.30525625,0.316969
10:14:18,30-Sep-21,0.5525,0.563,0.30525625,0.316969
10:14:18,30-Sep-21,0.5525,0.563,0.30525625,0.316969
10:14:18,30-Sep-21,0.557,0.563,0.310249,0.316969
10:14:18,30-Sep-21,0.557,0.562,0.310249,0.315844
10:14:18,30-Sep-21,0.557,0.562,0.310249,0.315844
10:14:18,30-Sep-21,0.557,0.562,0.310249,0.315844
10:14:18,30-Sep-21,0.557,0.562,0.310249,0.315844
10:14:18,30-Sep-21,0.557,0.562,0.310249,0.315844
10:14:18,30-Sep-21,0.557,0.562,0.310249,0.315844
10:14:18,30-Sep-21,0.557,0.562,0.310249,0.315844
10:14:18,30-Sep-21,0.567,0.562,0.321489,0.315844
10:14:18,30-Sep-21,0.567,0.562,0.321489,0.315844
10:14:18,30-Sep-21,0.567,0.562,0.321489,0.315844
10:14:18,30-Sep-21,0.567,0.561,0.321489,0.314721
10:14:18,30-Sep-21,0.567,0.561,0.321489,0.314721
10:14:18,30-Sep-21,0.572,0.561,0.327184,0.314721
10:14:18,30-Sep-21,0.572,0.561,0.327184,0.314721
10:14:18,30-Sep-21,0.567,0.561,0.321489,0.314721
10:14:18,30-Sep-21,0.567,0.56,0.321489,0.3136
10:14:18,30-Sep-21,0.567,0.56,0.321489,0.3136
10:14:18,30-Sep-21,0.567,0.56,0.321489,0.3136
10:14:18,30-Sep-21,0.567,0.56,0.321489,0.3136
10:14:18,30-Sep-21,0.562,0.559,0.315844,0.312481
10:14:18,30-Sep-21,0.562,0.559,0.315844,0.312481
10:14:18,30-Sep-21,0.562,0.559,0.315844,0.312481
10:14:18,30-Sep-21,0.557,0.558,0.310249,0.311364
10:14:18,30-Sep-21,0.557,0.558,0.310249,0.311364
10:14:18,30-Sep-21,0.557,0.557,0.310249,0.310249
10:14:18,30-Sep-21,0.557,0.557,0.310249,0.310249
10:14:18,30-Sep-21,0.557,0.557,0.310249,0.310249
10:14:18,30-Sep-21,0.5475,0.556,0.29975625,0.309136
10:14:18,30-Sep-21,0.5475,0.556,0.29975625,0.309136
10:14:18,30-Sep-21,0.5475,0.555,0.29975625,0.308025
10:14:18,30-Sep-21,0.5475,0.555,0.29975625,0.308025
10:14:18,30-Sep-21,0.5475,0.554,0.29975625,0.306916
10:14:18,30-Sep-21,0.5475,0.554,0.29975625,0.306916
10:14:18,30-Sep-21,0.5475,0.553,0.29975625,0.305809
10:14:18,30-Sep-21,0.5525,0.553,0.30525625,0.305809
10:14:18,30-Sep-21,0.5525,0.553,0.30525625,0.305809
10:14:18,30-Sep-21,0.5525,0.552,0.30525625,0.304704
10:14:18,30-Sep-21,0.557,0.552,0.310249,0.304704
10:14:18,30-Sep-21,0.557,0.551,0.310249,0.303601
10:14:18,30-Sep-21,0.557,0.551,0.310249,0.303601
10:14:18,30-Sep-21,0.557,0.55,0.310249,0.3025
10:14:18,30-Sep-21,0.557,0.55,0.310249,0.3025
10:14:18,30-Sep-21,0.557,0.55,0.310249,0.3025
10:14:18,30-Sep-21,0.557,0.549,0.310249,0.301401
10:14:18,30-Sep-21,0.557,0.549,0.310249,0.301401
10:14:18,30-Sep-21,0.5525,0.548,0.30525625,0.300304
10:14:18,30-Sep-21,0.5525,0.548,0.30525625,0.300304
10:14:18,30-Sep-21,0.5525,0.548,0.30525625,0.300304
10:14:18,30-Sep-21,0.5475,0.548,0.29975625,0.300304
10:14:18,30-Sep-21,0.5475,0.547,0.29975625,0.299209
10:14:18,30-Sep-21,0.5475,0.547,0.29975625,0.299209
10:14:18,30-Sep-21,0.5375,0.547,0.28890625,0.299209
10:14:18,30-Sep-21,0.5375,0.547,0.28890625,0.299209
10:14:18,30-Sep-21,0.5375,0.546,0.28890625,0.298116
10:14:18,30-Sep-21,0.5375,0.546,0.28890625,0.298116
10:14:18,30-Sep-21,0.5375,0.546,0.28890625,0.298116
10:14:18,30-Sep-21,0.5325,0.546,0.28355625,0.298116
10:14:18,30-Sep-21,0.5325,0.546,0.28355625,0.298116
10:14:18,30-Sep-21,0.5325,0.546,0.28355625,0.298116
10:14:18,30-Sep-21,0.5375,0.546,0.28890625,0.298116
10:14:18,30-Sep-21,0.5375,0.546,0.28890625,0.298116
10:14:18,30-Sep-21,0.5375,0.546,0.28890625,0.298116
10:14:18,30-Sep-21,0.5375,0.546,0.28890625,0.298116
10:14:18,30-Sep-21,0.5525,0.546,0.30525625,0.298116
10:14:18,30-Sep-21,0.5525,0.546,0.30525625,0.298116
10:14:18,30-Sep-21,0.5525,0.546,0.30525625,0.298116
10:14:18,30-Sep-21,0.5525,0.546,0.30525625,0.298116
10:14:18,30-Sep-21,0.5525,0.546,0.30525625,0.298116
10:14:18,30-Sep-21,0.5525,0.546,0.30525625,0.298116
10:14:18,30-Sep-21,0.5525,0.546,0.30525625,0.298116
10:14:18,30-Sep-21,0.5525,0.546,0.30525625,0.298116
10:14:18,30-Sep-21,0.5525,0.546,0.30525625,0.298116
10:14:18,30-Sep-21,0.5525,0.546,0.30525625,0.298116
10:14:18,30-Sep-21,0.5475,0.546,0.29975625,0.298116
10:14:18,30-Sep-21,0.5475,0.547,0.29975625,0.299209
10:14:18,30-Sep-21,0.5475,0.547,0.29975625,0.299209
10:14:18,30-Sep-21,0.5475,0.547,0.29975625,0.299209
10:14:18,30-Sep-21,0.5475,0.547,0.29975625,0.299209
10:14:18,30-Sep-21,0.5475,0.547,0.29975625,0.299209
10:14:18,30-Sep-21,0.5425,0.547,0.29430625,0.299209
10:14:18,30-Sep-21,0.5425,0.547,0.29430625,0.299209
10:14:18,30-Sep-21,0.5375,0.547,0.28890625,0.299209
10:14:18,30-Sep-21,0.5375,0.547,0.28890625,0.299209
10:14:18,30-Sep-21,0.5425,0.547,0.29430625,0.299209
10:14:18,30-Sep-21,0.5425,0.547,0.29430625,0.299209
10:14:18,30-Sep-21,0.5475,0.547,0.29975625,0.299209
10:14:18,30-Sep-21,0.5475,0.547,0.29975625,0.299209
10:14:18,30-Sep-21,0.5475,0.547,0.29975625,0.299209
10:14:18,30-Sep-21,0.5525,0.547,0.30525625,0.299209
10:14:18,30-Sep-21,0.5525,0.547,0.30525625,0.299209
10:14:18,30-Sep-21,0.562,0.547,0.315844,0.299209
10:14:18,30-Sep-21,0.562,0.547,0.315844,0.299209
10:14:18,30-Sep-21,0.562,0.546,0.315844,0.298116
10:14:18,30-Sep-21,0.562,0.546,0.315844,0.298116
10:14:18,30-Sep-21,0.562,0.546,0.315844,0.298116
10:14:19,30-Sep-21,0.557,0.546,0.310249,0.298116
10:14:19,30-Sep-21,0.557,0.546,0.310249,0.298116
10:14:19,30-Sep-21,0.557,0.546,0.310249,0.298116
10:14:19,30-Sep-21,0.5475,0.546,0.29975625,0.298116
10:14:19,30-Sep-21,0.5475,0.546,0.29975625,0.298116
10:14:19,30-Sep-21,0.5425,0.546,0.29430625,0.298116
10:14:19,30-Sep-21,0.5425,0.546,0.29430625,0.298116
10:14:19,30-Sep-21,0.5325,0.546,0.28355625,0.298116
10:14:19,30-Sep-21,0.5325,0.546,0.28355625,0.298116
10:14:19,30-Sep-21,0.5325,0.546,0.28355625,0.298116
10:14:19,30-Sep-21,0.528,0.546,0.278784,0.298116
10:14:19,30-Sep-21,0.528,0.546,0.278784,0.298116
10:14:19,30-Sep-21,0.5325,0.546,0.28355625,0.298116
10:14:19,30-Sep-21,0.5325,0.546,0.28355625,0.298116
10:14:19,30-Sep-21,0.5375,0.546,0.28890625,0.298116
10:14:19,30-Sep-21,0.5425,0.546,0.29430625,0.298116
10:14:19,30-Sep-21,0.5425,0.547,0.29430625,0.299209
10:14:19,30-Sep-21,0.5475,0.547,0.29975625,0.299209
10:14:19,30-Sep-21,0.5475,0.547,0.29975625,0.299209
10:14:19,30-Sep-21,0.5475,0.547,0.29975625,0.299209
10:14:19,30-Sep-21,0.5525,0.548,0.30525625,0.300304
10:14:19,30-Sep-21,0.5525,0.548,0.30525625,0.300304
10:14:19,30-Sep-21,0.5525,0.549,0.30525625,0.301401
10:14:19,30-Sep-21,0.5525,0.549,0.30525625,0.301401
10:14:19,30-Sep-21,0.5475,0.55,0.29975625,0.3025
10:14:19,30-Sep-21,0.5475,0.55,0.29975625,0.3025
10:14:19,30-Sep-21,0.5475,0.551,0.29975625,0.303601
10:14:19,30-Sep-21,0.5475,0.551,0.29975625,0.303601
10:14:19,30-Sep-21,0.5475,0.552,0.29975625,0.304704
10:14:19,30-Sep-21,0.5475,0.552,0.29975625,0.304704
10:14:19,30-Sep-21,0.5475,0.553,0.29975625,0.305809
10:14:19,30-Sep-21,0.5475,0.554,0.29975625,0.306916
10:14:19,30-Sep-21,0.5475,0.554,0.29975625,0.306916
10:14:19,30-Sep-21,0.5475,0.555,0.29975625,0.308025
10:14:19,30-Sep-21,0.5475,0.555,0.29975625,0.308025
10:14:19,30-Sep-21,0.5525,0.556,0.30525625,0.309136
10:14:19,30-Sep-21,0.5525,0.557,0.30525625,0.310249
10:14:19,30-Sep-21,0.5525,0.557,0.30525625,0.310249
10:14:19,30-Sep-21,0.567,0.558,0.321489,0.311364
10:14:19,30-Sep-21,0.567,0.559,0.321489,0.312481
10:14:19,30-Sep-21,0.567,0.559,0.321489,0.312481
10:14:19,30-Sep-21,0.567,0.56,0.321489,0.3136
10:14:19,30-Sep-21,0.567,0.56,0.321489,0.3136
10:14:19,30-Sep-21,0.572,0.561,0.327184,0.314721
10:14:19,30-Sep-21,0.572,0.562,0.327184,0.315844
10:14:19,30-Sep-21,0.572,0.562,0.327184,0.315844
10:14:19,30-Sep-21,0.5765,0.563,0.33235225,0.316969
10:14:19,30-Sep-21,0.5765,0.563,0.33235225,0.316969
10:14:19,30-Sep-21,0.5765,0.564,0.33235225,0.318096
10:14:19,30-Sep-21,0.5765,0.564,0.33235225,0.318096
